   5.0000         7
   5.0500        13
   5.1000         9
   5.1500         7
   5.2000        12
   5.2500         5
   5.3000        12
   5.3500        14
   5.4000         6
   5.4500         9
   5.5000         8
   5.5500        12
   5.6000        10
   5.6500         8
   5.7000         7
   5.7500         5
   5.8000         2
   5.8500         8
   5.9000         6
   5.9500         5
   6.0000         4
   6.0500         5
   6.1000         6
   6.1500        12
   6.2000         7
   6.2500         9
   6.3000         9
   6.3500         7
   6.4000        10
   6.4500         7
   6.5000         9
   6.5500        10
   6.6000         8
   6.6500         8
   6.7000        10
   6.7500         4
   6.8000         8
   6.8500         9
   6.9000         8
   6.9500        10
   7.0000        11
   7.0500         9
   7.1000         7
   7.1500         3
   7.2000         6
   7.2500         9
   7.3000         4
   7.3500        10
   7.4000         4
   7.4500         5
   7.5000         8
   7.5500         7
   7.6000         7
   7.6500        10
   7.7000        10
   7.7500         7
   7.8000         5
   7.8500         8
   7.9000         6
   7.9500        10
   8.0000         4
   8.0500         2
   8.1000         5
   8.1500        10
   8.2000         5
   8.2500         7
   8.3000         6
   8.3500         9
   8.4000         8
   8.4500         7
   8.5000         8
   8.5500         8
   8.6000         4
   8.6500         3
   8.7000         5
   8.7500         6
   8.8000        10
   8.8500         7
   8.9000         8
   8.9500         8
   9.0000         4
   9.0500         6
   9.1000         3
   9.1500         5
   9.2000         5
   9.2500         3
   9.3000         5
   9.3500         5
   9.4000         6
   9.4500         5
   9.5000         7
   9.5500         6
   9.6000        10
   9.6500         7
   9.7000         2
   9.7500         7
   9.8000         9
   9.8500         5
   9.9000         5
   9.9500         5
  10.0000         6
  10.0500        13
  10.1000         3
  10.1500         3
  10.2000         5
  10.2500         4
  10.3000         7
  10.3500         5
  10.4000         6
  10.4500         7
  10.5000         7
  10.5500        10
  10.6000         0
  10.6500         6
  10.7000         2
  10.7500         9
  10.8000         2
  10.8500         2
  10.9000         3
  10.9500         4
  11.0000         7
  11.0500         7
  11.1000         3
  11.1500         6
  11.2000         3
  11.2500         4
  11.3000         0
  11.3500         3
  11.4000         8
  11.4500         4
  11.5000         4
  11.5500         2
  11.6000         5
  11.6500         4
  11.7000         7
  11.7500         1
  11.8000         6
  11.8500         7
  11.9000         3
  11.9500         5
  12.0000         5
  12.0500         5
  12.1000         4
  12.1500         5
  12.2000         3
  12.2500         5
  12.3000         6
  12.3500         4
  12.4000         9
  12.4500         5
  12.5000         3
  12.5500         4
  12.6000         4
  12.6500         4
  12.7000         5
  12.7500         6
  12.8000         3
  12.8500         9
  12.9000         3
  12.9500         1
  13.0000         5
  13.0500         4
  13.1000         3
  13.1500         2
  13.2000        10
  13.2500         2
  13.3000         7
  13.3500         4
  13.4000         4
  13.4500         7
  13.5000         4
  13.5500         9
  13.6000         1
  13.6500         3
  13.7000         6
  13.7500         7
  13.8000         1
  13.8500         2
  13.9000         7
  13.9500         3
  14.0000         4
  14.0500         5
  14.1000         6
  14.1500         5
  14.2000         2
  14.2500         6
  14.3000         6
  14.3500         5
  14.4000         5
  14.4500         2
  14.5000         2
  14.5500         8
  14.6000         2
  14.6500         1
  14.7000         2
  14.7500         1
  14.8000         3
  14.8500         5
  14.9000         6
  14.9500         2
  15.0000         5
  15.0500         2
  15.1000         1
  15.1500         4
  15.2000         5
  15.2500         3
  15.3000         1
  15.3500         3
  15.4000         4
  15.4500         4
  15.5000         7
  15.5500         1
  15.6000         6
  15.6500         4
  15.7000         4
  15.7500         4
  15.8000         1
  15.8500         8
  15.9000         4
  15.9500         2
  16.0000         4
  16.0500         5
  16.1000         6
  16.1500         3
  16.2000         3
  16.2500         6
  16.3000         3
  16.3500         1
  16.4000         2
  16.4500         3
  16.5000         7
  16.5500         4
  16.6000         5
  16.6500         9
  16.7000         7
  16.7500         4
  16.8000         1
  16.8500         5
  16.9000         3
  16.9500         3
  17.0000         5
  17.0500         4
  17.1000         2
  17.1500         1
  17.2000         2
  17.2500         2
  17.3000         5
  17.3500         3
  17.4000         3
  17.4500         0
  17.5000         5
  17.5500         5
  17.6000         3
  17.6500         3
  17.7000         2
  17.7500         3
  17.8000         3
  17.8500         4
  17.9000         4
  17.9500         3
  18.0000         3
  18.0500         5
  18.1000         4
  18.1500         6
  18.2000         1
  18.2500         4
  18.3000         3
  18.3500         7
  18.4000         3
  18.4500         4
  18.5000         4
  18.5500         6
  18.6000         7
  18.6500         8
  18.7000         3
  18.7500         6
  18.8000         1
  18.8500         4
  18.9000         5
  18.9500         4
  19.0000         2
  19.0500         3
  19.1000         4
  19.1500         4
  19.2000         5
  19.2500         3
  19.3000         4
  19.3500         2
  19.4000         6
  19.4500         9
  19.5000         2
  19.5500         6
  19.6000         3
  19.6500         4
  19.7000         3
  19.7500         4
  19.8000         3
  19.8500         3
  19.9000         4
  19.9500         5
  20.0000         4
  20.0500         3
  20.1000         4
  20.1500         5
  20.2000         5
  20.2500         2
  20.3000         2
  20.3500         3
  20.4000         5
  20.4500         3
  20.5000         2
  20.5500         0
  20.6000         0
  20.6500         4
  20.7000         1
  20.7500         0
  20.8000         4
  20.8500         2
  20.9000         4
  20.9500         2
  21.0000         8
  21.0500         5
  21.1000         3
  21.1500         3
  21.2000         5
  21.2500         5
  21.3000         4
  21.3500         5
  21.4000         8
  21.4500         4
  21.5000         3
  21.5500         2
  21.6000         4
  21.6500         4
  21.7000         4
  21.7500         1
  21.8000         1
  21.8500         2
  21.9000         4
  21.9500         4
  22.0000         2
  22.0500         2
  22.1000         8
  22.1500         3
  22.2000         2
  22.2500         2
  22.3000         1
  22.3500         3
  22.4000         6
  22.4500         6
  22.5000         3
  22.5500         5
  22.6000         7
  22.6500         5
  22.7000         4
  22.7500         2
  22.8000         2
  22.8500         2
  22.9000         6
  22.9500         2
  23.0000         2
  23.0500         2
  23.1000         6
  23.1500         5
  23.2000         3
  23.2500         2
  23.3000         4
  23.3500         3
  23.4000         5
  23.4500         5
  23.5000         6
  23.5500         7
  23.6000         7
  23.6500         4
  23.7000         5
  23.7500         4
  23.8000         6
  23.8500         1
  23.9000         0
  23.9500         5
  24.0000         9
  24.0500         8
  24.1000         4
  24.1500         2
  24.2000         6
  24.2500         5
  24.3000         6
  24.3500         2
  24.4000         2
  24.4500         6
  24.5000         3
  24.5500         7
  24.6000         8
  24.6500         4
  24.7000         5
  24.7500         2
  24.8000         7
  24.8500         1
  24.9000         2
  24.9500         2
  25.0000         4
  25.0500         4
  25.1000         2
  25.1500         4
  25.2000         5
  25.2500         5
  25.3000         4
  25.3500         3
  25.4000         3
  25.4500         5
  25.5000        10
  25.5500         5
  25.6000         2
  25.6500         5
  25.7000         7
  25.7500         5
  25.8000         5
  25.8500         7
  25.9000         7
  25.9500         7
  26.0000         7
  26.0500         5
  26.1000         3
  26.1500         4
  26.2000         4
  26.2500         5
  26.3000         3
  26.3500         1
  26.4000         0
  26.4500         6
  26.5000         2
  26.5500         4
  26.6000         6
  26.6500         3
  26.7000         5
  26.7500         6
  26.8000         4
  26.8500         2
  26.9000         8
  26.9500         3
  27.0000         4
  27.0500        10
  27.1000         8
  27.1500         2
  27.2000         4
  27.2500         5
  27.3000         5
  27.3500         5
  27.4000         7
  27.4500         5
  27.5000         7
  27.5500         6
  27.6000        10
  27.6500         8
  27.7000        13
  27.7500         9
  27.8000        15
  27.8500        12
  27.9000        14
  27.9500        22
  28.0000        23
  28.0500        15
  28.1000        19
  28.1500        31
  28.2000        41
  28.2500        95
  28.3000       209
  28.3500       379
  28.4000       557
  28.4500       924
  28.5000      1208
  28.5500      1453
  28.6000       836
  28.6500       388
  28.7000       102
  28.7500        35
  28.8000        22
  28.8500        16
  28.9000        15
  28.9500         9
  29.0000        12
  29.0500        18
  29.1000        10
  29.1500         7
  29.2000         9
  29.2500         7
  29.3000         2
  29.3500         3
  29.4000         6
  29.4500         9
  29.5000         6
  29.5500         9
  29.6000         4
  29.6500         3
  29.7000         1
  29.7500        10
  29.8000         6
  29.8500         1
  29.9000         1
  29.9500         4
  30.0000         3
  30.0500         3
  30.1000         2
  30.1500         6
  30.2000         1
  30.2500         4
  30.3000         5
  30.3500         6
  30.4000         4
  30.4500         2
  30.5000         4
  30.5500         3
  30.6000         6
  30.6500         7
  30.7000         3
  30.7500         1
  30.8000         1
  30.8500         4
  30.9000         4
  30.9500         6
  31.0000         2
  31.0500         2
  31.1000         5
  31.1500         5
  31.2000         6
  31.2500         4
  31.3000         0
  31.3500         5
  31.4000         5
  31.4500         8
  31.5000         6
  31.5500         4
  31.6000         3
  31.6500         5
  31.7000         8
  31.7500         3
  31.8000         6
  31.8500         4
  31.9000        10
  31.9500         8
  32.0000         3
  32.0500         3
  32.1000         4
  32.1500         3
  32.2000         1
  32.2500         3
  32.3000         3
  32.3500         2
  32.4000         4
  32.4500         6
  32.5000         7
  32.5500         3
  32.6000         3
  32.6500         3
  32.7000         7
  32.7500         3
  32.8000         3
  32.8500         4
  32.9000         6
  32.9500         3
  33.0000         2
  33.0500         4
  33.1000         5
  33.1500         3
  33.2000         3
  33.2500         3
  33.3000         4
  33.3500         1
  33.4000         8
  33.4500         4
  33.5000         5
  33.5500         7
  33.6000         0
  33.6500         3
  33.7000         3
  33.7500         5
  33.8000         7
  33.8500         2
  33.9000         1
  33.9500         2
  34.0000         6
  34.0500         3
  34.1000         2
  34.1500         4
  34.2000         1
  34.2500         2
  34.3000         8
  34.3500         4
  34.4000         4
  34.4500         8
  34.5000         6
  34.5500         2
  34.6000         4
  34.6500         6
  34.7000         7
  34.7500         3
  34.8000         3
  34.8500         5
  34.9000         5
  34.9500         8
  35.0000         4
  35.0500         5
  35.1000         1
  35.1500         5
  35.2000         7
  35.2500         1
  35.3000         3
  35.3500         4
  35.4000         5
  35.4500         5
  35.5000         2
  35.5500         1
  35.6000         1
  35.6500         3
  35.7000         7
  35.7500         4
  35.8000         7
  35.8500         6
  35.9000         4
  35.9500         4
  36.0000         3
  36.0500         0
  36.1000         6
  36.1500         7
  36.2000         3
  36.2500         5
  36.3000         4
  36.3500         2
  36.4000         2
  36.4500         4
  36.5000         4
  36.5500         1
  36.6000         2
  36.6500         6
  36.7000         3
  36.7500         3
  36.8000         2
  36.8500         2
  36.9000         4
  36.9500         3
  37.0000         6
  37.0500         2
  37.1000         3
  37.1500         5
  37.2000         3
  37.2500         6
  37.3000         3
  37.3500         4
  37.4000         5
  37.4500         4
  37.5000         1
  37.5500         7
  37.6000         2
  37.6500         4
  37.7000         5
  37.7500         5
  37.8000         3
  37.8500         2
  37.9000         3
  37.9500         1
  38.0000         3
  38.0500         6
  38.1000         5
  38.1500         4
  38.2000         1
  38.2500         4
  38.3000         9
  38.3500         2
  38.4000         5
  38.4500         7
  38.5000         1
  38.5500         5
  38.6000         2
  38.6500         4
  38.7000         6
  38.7500         5
  38.8000         3
  38.8500         5
  38.9000         7
  38.9500         1
  39.0000         5
  39.0500         4
  39.1000         5
  39.1500         2
  39.2000         2
  39.2500         5
  39.3000         3
  39.3500         7
  39.4000         3
  39.4500         6
  39.5000         6
  39.5500         1
  39.6000         5
  39.6500         1
  39.7000         3
  39.7500         7
  39.8000         3
  39.8500         3
  39.9000         5
  39.9500         1
  40.0000         4
  40.0500         2
  40.1000         7
  40.1500         6
  40.2000         5
  40.2500         5
  40.3000         4
  40.3500         7
  40.4000         2
  40.4500         3
  40.5000         4
  40.5500         3
  40.6000         4
  40.6500         2
  40.7000         4
  40.7500         3
  40.8000         6
  40.8500         1
  40.9000         1
  40.9500         5
  41.0000         2
  41.0500         3
  41.1000         3
  41.1500         7
  41.2000         3
  41.2500         7
  41.3000         6
  41.3500         5
  41.4000         2
  41.4500         2
  41.5000         5
  41.5500         1
  41.6000         6
  41.6500         3
  41.7000         4
  41.7500         3
  41.8000         5
  41.8500         4
  41.9000         6
  41.9500         3
  42.0000         8
  42.0500         6
  42.1000         3
  42.1500         3
  42.2000         3
  42.2500         4
  42.3000         2
  42.3500         3
  42.4000        10
  42.4500         5
  42.5000         6
  42.5500         7
  42.6000         9
  42.6500         2
  42.7000         2
  42.7500         4
  42.8000         4
  42.8500         5
  42.9000         7
  42.9500         5
  43.0000         4
  43.0500         4
  43.1000         2
  43.1500         2
  43.2000         4
  43.2500         8
  43.3000         4
  43.3500         2
  43.4000         3
  43.4500         3
  43.5000         3
  43.5500         4
  43.6000         4
  43.6500         3
  43.7000         7
  43.7500         5
  43.8000         6
  43.8500         4
  43.9000         5
  43.9500         6
  44.0000         8
  44.0500         6
  44.1000         2
  44.1500         1
  44.2000         6
  44.2500         4
  44.3000         4
  44.3500         5
  44.4000         5
  44.4500         3
  44.5000         6
  44.5500         3
  44.6000         3
  44.6500         2
  44.7000         5
  44.7500         4
  44.8000         4
  44.8500         2
  44.9000        11
  44.9500         4
  45.0000         1
  45.0500         2
  45.1000         8
  45.1500         4
  45.2000         2
  45.2500         4
  45.3000         5
  45.3500         9
  45.4000         3
  45.4500         4
  45.5000         3
  45.5500         1
  45.6000         3
  45.6500         6
  45.7000         7
  45.7500         4
  45.8000         4
  45.8500         7
  45.9000         5
  45.9500         7
  46.0000         8
  46.0500         3
  46.1000         4
  46.1500         6
  46.2000        18
  46.2500         6
  46.3000        10
  46.3500         7
  46.4000         7
  46.4500         7
  46.5000        10
  46.5500         9
  46.6000         6
  46.6500        11
  46.7000        13
  46.7500         9
  46.8000        15
  46.8500        13
  46.9000        12
  46.9500        10
  47.0000        20
  47.0500        36
  47.1000        38
  47.1500        78
  47.2000       140
  47.2500       236
  47.3000       535
  47.3500       785
  47.4000       975
  47.4500       688
  47.5000       493
  47.5500       361
  47.6000       137
  47.6500        55
  47.7000        26
  47.7500        24
  47.8000        20
  47.8500        14
  47.9000        19
  47.9500        16
  48.0000         7
  48.0500        12
  48.1000         5
  48.1500         7
  48.2000         7
  48.2500        11
  48.3000         8
  48.3500         4
  48.4000         8
  48.4500         8
  48.5000         8
  48.5500         5
  48.6000         4
  48.6500         6
  48.7000         4
  48.7500         4
  48.8000         8
  48.8500         6
  48.9000         2
  48.9500         8
  49.0000         4
  49.0500         3
  49.1000        10
  49.1500         3
  49.2000        10
  49.2500         5
  49.3000         1
  49.3500         3
  49.4000         4
  49.4500         3
  49.5000         2
  49.5500         8
  49.6000         4
  49.6500         4
  49.7000         5
  49.7500         3
  49.8000         9
  49.8500         4
  49.9000         3
  49.9500         4
  50.0000         6
  50.0500         5
  50.1000         4
  50.1500         4
  50.2000         4
  50.2500         3
  50.3000         6
  50.3500         5
  50.4000         8
  50.4500         5
  50.5000         1
  50.5500         7
  50.6000         5
  50.6500         4
  50.7000         4
  50.7500         2
  50.8000        10
  50.8500         8
  50.9000         6
  50.9500         8
  51.0000         1
  51.0500         4
  51.1000         3
  51.1500         6
  51.2000         8
  51.2500         5
  51.3000         7
  51.3500         5
  51.4000         3
  51.4500         4
  51.5000         6
  51.5500         2
  51.6000         3
  51.6500         5
  51.7000         3
  51.7500         5
  51.8000         5
  51.8500         6
  51.9000         8
  51.9500         6
  52.0000         4
  52.0500         6
  52.1000         5
  52.1500         4
  52.2000         5
  52.2500         1
  52.3000         2
  52.3500         5
  52.4000         2
  52.4500         6
  52.5000         2
  52.5500         4
  52.6000         1
  52.6500        11
  52.7000         4
  52.7500         8
  52.8000         6
  52.8500         4
  52.9000         1
  52.9500         5
  53.0000         3
  53.0500         3
  53.1000         3
  53.1500         3
  53.2000         4
  53.2500         3
  53.3000         4
  53.3500         1
  53.4000         4
  53.4500         4
  53.5000         5
  53.5500         3
  53.6000         7
  53.6500         4
  53.7000         6
  53.7500         1
  53.8000         4
  53.8500         2
  53.9000         7
  53.9500         2
  54.0000         8
  54.0500         4
  54.1000         4
  54.1500         8
  54.2000         5
  54.2500         5
  54.3000         2
  54.3500         6
  54.4000         9
  54.4500         8
  54.5000         6
  54.5500         9
  54.6000         4
  54.6500         5
  54.7000         6
  54.7500         8
  54.8000         6
  54.8500         5
  54.9000         5
  54.9500         5
  55.0000         5
  55.0500         6
  55.1000         4
  55.1500         7
  55.2000         3
  55.2500         6
  55.3000         4
  55.3500         5
  55.4000         3
  55.4500         4
  55.5000         5
  55.5500         6
  55.6000        11
  55.6500        11
  55.7000        11
  55.7500        10
  55.8000         5
  55.8500        21
  55.9000        29
  55.9500        24
  56.0000        46
  56.0500       116
  56.1000       317
  56.1500       512
  56.2000       505
  56.2500       376
  56.3000       291
  56.3500       245
  56.4000       150
  56.4500        54
  56.5000        27
  56.5500        20
  56.6000        14
  56.6500        11
  56.7000        13
  56.7500         8
  56.8000         8
  56.8500        14
  56.9000         6
  56.9500         9
  57.0000        10
  57.0500         8
  57.1000         6
  57.1500         6
  57.2000         3
  57.2500         7
  57.3000         6
  57.3500         5
  57.4000         8
  57.4500         3
  57.5000         4
  57.5500         4
  57.6000         2
  57.6500         3
  57.7000         4
  57.7500         5
  57.8000         8
  57.8500         3
  57.9000         1
  57.9500         3
  58.0000         4
  58.0500         5
  58.1000         2
  58.1500         5
  58.2000         2
  58.2500         7
  58.3000         4
  58.3500         3
  58.4000         3
  58.4500         2
  58.5000         2
  58.5500         5
  58.6000         3
  58.6500         2
  58.7000         5
  58.7500         3
  58.8000         4
  58.8500         9
  58.9000         3
  58.9500         8
  59.0000         8
  59.0500         3
  59.1000         4
  59.1500         1
  59.2000         4
  59.2500         3
  59.3000         4
  59.3500         4
  59.4000         4
  59.4500         8
  59.5000         3
  59.5500         4
  59.6000         2
  59.6500         2
  59.7000         4
  59.7500         3
  59.8000         3
  59.8500         4
  59.9000         2
  59.9500         3
  60.0000         3
  60.0500         1
  60.1000         3
  60.1500         5
  60.2000         4
  60.2500         4
  60.3000         2
  60.3500         4
  60.4000         3
  60.4500         1
  60.5000         1
  60.5500         6
  60.6000         4
  60.6500         2
  60.7000         4
  60.7500         1
  60.8000         2
  60.8500         2
  60.9000         3
  60.9500         2
  61.0000         8
  61.0500         3
  61.1000         2
  61.1500         6
  61.2000         3
  61.2500         3
  61.3000         7
  61.3500         1
  61.4000         6
  61.4500         0
  61.5000         3
  61.5500         2
  61.6000         7
  61.6500         4
  61.7000         2
  61.7500         3
  61.8000         3
  61.8500         4
  61.9000         2
  61.9500         3
  62.0000         1
  62.0500         5
  62.1000         5
  62.1500         5
  62.2000         7
  62.2500         3
  62.3000         4
  62.3500         4
  62.4000         4
  62.4500         3
  62.5000         7
  62.5500         5
  62.6000         7
  62.6500         2
  62.7000         3
  62.7500         2
  62.8000         0
  62.8500         6
  62.9000         0
  62.9500         2
  63.0000         4
  63.0500         4
  63.1000         5
  63.1500         2
  63.2000         7
  63.2500         2
  63.3000         3
  63.3500         4
  63.4000         2
  63.4500         3
  63.5000         2
  63.5500         4
  63.6000         6
  63.6500         5
  63.7000         7
  63.7500         3
  63.8000         4
  63.8500         4
  63.9000         4
  63.9500         2
  64.0000         5
  64.0500         6
  64.1000         2
  64.1500         5
  64.2000         5
  64.2500         2
  64.3000         2
  64.3500         6
  64.4000         3
  64.4500         3
  64.5000         4
  64.5500         3
  64.6000         2
  64.6500         2
  64.7000         4
  64.7500         5
  64.8000         2
  64.8500         3
  64.9000         1
  64.9500         3
  65.0000         7
  65.0500         5
  65.1000         6
  65.1500         1
  65.2000         2
  65.2500         4
  65.3000         1
  65.3500         3
  65.4000         4
  65.4500         5
  65.5000         1
  65.5500         2
  65.6000         4
  65.6500         5
  65.7000         5
  65.7500         1
  65.8000         4
  65.8500         1
  65.9000         2
  65.9500         5
  66.0000         2
  66.0500         3
  66.1000         6
  66.1500         5
  66.2000         2
  66.2500         1
  66.3000         4
  66.3500         5
  66.4000         2
  66.4500         0
  66.5000         4
  66.5500         3
  66.6000         2
  66.6500         4
  66.7000        10
  66.7500         2
  66.8000         4
  66.8500         6
  66.9000         3
  66.9500         4
  67.0000         5
  67.0500         6
  67.1000         1
  67.1500         3
  67.2000         1
  67.2500         1
  67.3000         2
  67.3500         8
  67.4000         1
  67.4500         6
  67.5000         3
  67.5500         5
  67.6000         4
  67.6500         4
  67.7000         3
  67.7500         2
  67.8000         3
  67.8500         2
  67.9000         5
  67.9500         3
  68.0000         2
  68.0500         3
  68.1000        11
  68.1500         2
  68.2000         5
  68.2500         6
  68.3000         3
  68.3500         7
  68.4000         5
  68.4500         3
  68.5000         1
  68.5500         3
  68.6000         4
  68.6500         8
  68.7000         5
  68.7500         4
  68.8000         4
  68.8500         8
  68.9000         9
  68.9500        10
  69.0000         9
  69.0500        23
  69.1000        79
  69.1500       117
  69.2000       105
  69.2500        78
  69.3000        46
  69.3500        62
  69.4000        50
  69.4500        33
  69.5000        15
  69.5500         4
  69.6000         8
  69.6500         6
  69.7000         2
  69.7500         8
  69.8000         5
  69.8500         7
  69.9000         6
  69.9500         6
  70.0000         5
  70.0500         8
  70.1000         8
  70.1500         3
  70.2000         3
  70.2500         5
  70.3000         7
  70.3500         2
  70.4000         2
  70.4500         3
  70.5000         6
  70.5500         4
  70.6000         1
  70.6500         2
  70.7000         4
  70.7500         2
  70.8000         6
  70.8500         5
  70.9000         6
  70.9500         3
  71.0000         7
  71.0500         3
  71.1000         4
  71.1500         5
  71.2000         4
  71.2500         2
  71.3000         4
  71.3500         2
  71.4000         3
  71.4500         2
  71.5000         8
  71.5500         1
  71.6000         4
  71.6500         1
  71.7000         0
  71.7500         4
  71.8000         1
  71.8500         4
  71.9000         3
  71.9500         5
  72.0000         3
  72.0500         4
  72.1000         2
  72.1500         3
  72.2000         4
  72.2500         3
  72.3000         6
  72.3500         5
  72.4000         1
  72.4500         4
  72.5000         9
  72.5500         8
  72.6000         2
  72.6500         7
  72.7000         4
  72.7500         4
  72.8000         5
  72.8500         1
  72.9000         3
  72.9500         5
  73.0000         1
  73.0500         3
  73.1000         7
  73.1500         4
  73.2000         1
  73.2500         4
  73.3000         3
  73.3500         2
  73.4000         7
  73.4500         3
  73.5000         4
  73.5500         6
  73.6000         3
  73.6500         6
  73.7000         4
  73.7500         5
  73.8000         2
  73.8500         6
  73.9000         5
  73.9500         1
  74.0000         9
  74.0500         7
  74.1000         4
  74.1500         5
  74.2000         5
  74.2500         3
  74.3000         3
  74.3500         3
  74.4000         4
  74.4500         3
  74.5000         4
  74.5500         6
  74.6000         6
  74.6500         6
  74.7000         3
  74.7500         4
  74.8000         3
  74.8500         3
  74.9000         2
  74.9500         4
  75.0000         4
  75.0500         2
  75.1000         2
  75.1500         5
  75.2000         3
  75.2500         2
  75.3000         2
  75.3500         3
  75.4000         4
  75.4500         3
  75.5000         7
  75.5500         8
  75.6000         5
  75.6500         4
  75.7000         5
  75.7500         8
  75.8000         3
  75.8500         4
  75.9000         8
  75.9500         8
  76.0000        13
  76.0500        11
  76.1000         9
  76.1500        11
  76.2000        11
  76.2500        17
  76.3000        35
  76.3500        83
  76.4000       132
  76.4500       159
  76.5000       127
  76.5500        68
  76.6000        87
  76.6500       102
  76.7000        76
  76.7500        47
  76.8000        18
  76.8500         7
  76.9000        10
  76.9500        10
  77.0000         8
  77.0500         8
  77.1000         8
  77.1500         4
  77.2000         5
  77.2500         6
  77.3000         3
  77.3500         8
  77.4000         3
  77.4500         7
  77.5000         6
  77.5500         4
  77.6000         4
  77.6500         7
  77.7000         4
  77.7500         3
  77.8000         5
  77.8500         6
  77.9000         7
  77.9500         5
  78.0000         3
  78.0500         5
  78.1000         2
  78.1500         1
  78.2000         5
  78.2500         3
  78.3000         4
  78.3500         5
  78.4000         7
  78.4500         0
  78.5000         3
  78.5500         7
  78.6000         7
  78.6500         8
  78.7000         7
  78.7500         3
  78.8000         6
  78.8500         3
  78.9000         4
  78.9500         5
  79.0000         4
  79.0500         1
  79.1000         2
  79.1500         6
  79.2000         7
  79.2500         3
  79.3000         1
  79.3500         2
  79.4000         1
  79.4500         4
  79.5000         4
  79.5500         4
  79.6000         1
  79.6500         3
  79.7000         3
  79.7500         1
  79.8000         1
  79.8500         5
  79.9000         4
  79.9500         6
  80.0000         2
  80.0500         5
  80.1000         6
  80.1500         3
  80.2000         6
  80.2500         6
  80.3000         5
  80.3500         0
  80.4000         2
  80.4500         3
  80.5000         2
  80.5500         2
  80.6000         1
  80.6500         3
  80.7000         4
  80.7500         6
  80.8000         4
  80.8500         2
  80.9000         5
  80.9500         4
  81.0000         5
  81.0500         3
  81.1000         5
  81.1500         4
  81.2000         2
  81.2500         8
  81.3000         5
  81.3500         3
  81.4000         3
  81.4500         1
  81.5000         5
  81.5500         3
  81.6000         2
  81.6500         6
  81.7000         4
  81.7500         9
  81.8000         4
  81.8500         5
  81.9000         3
  81.9500         1
  82.0000         2
  82.0500         4
  82.1000         2
  82.1500         3
  82.2000         1
  82.2500         3
  82.3000         3
  82.3500         3
  82.4000         5
  82.4500         6
  82.5000         7
  82.5500         3
  82.6000         4
  82.6500         3
  82.7000         3
  82.7500         4
  82.8000         4
  82.8500         1
  82.9000         4
  82.9500         7
  83.0000         8
  83.0500         3
  83.1000         5
  83.1500         3
  83.2000         4
  83.2500         4
  83.3000         6
  83.3500         5
  83.4000         3
  83.4500         7
  83.5000         4
  83.5500         3
  83.6000         1
  83.6500         5
  83.7000         4
  83.7500         3
  83.8000         0
  83.8500         6
  83.9000         5
  83.9500         0
  84.0000         2
  84.0500         5
  84.1000         6
  84.1500         3
  84.2000         4
  84.2500         6
  84.3000         5
  84.3500         3
  84.4000         3
  84.4500         6
  84.5000         2
  84.5500         8
  84.6000         1
  84.6500         8
  84.7000         8
  84.7500         5
  84.8000         2
  84.8500         6
  84.9000         2
  84.9500         3
  85.0000         3
  85.0500         5
  85.1000         3
  85.1500         5
  85.2000         4
  85.2500         3
  85.3000         2
  85.3500         6
  85.4000         5
  85.4500         6
  85.5000         7
  85.5500         6
  85.6000         5
  85.6500         2
  85.7000         5
  85.7500         3
  85.8000         8
  85.8500         3
  85.9000         5
  85.9500         4
  86.0000         6
  86.0500         3
  86.1000         6
  86.1500         4
  86.2000         4
  86.2500         5
  86.3000         6
  86.3500         3
  86.4000         8
  86.4500         4
  86.5000         4
  86.5500         5
  86.6000         2
  86.6500         6
  86.7000         2
  86.7500         3
  86.8000         3
  86.8500         3
  86.9000         2
  86.9500         5
  87.0000         8
  87.0500         8
  87.1000         1
  87.1500         4
  87.2000         4
  87.2500         7
  87.3000         6
  87.3500         9
  87.4000         6
  87.4500         5
  87.5000         6
  87.5500         8
  87.6000         9
  87.6500         9
  87.7000        10
  87.7500        10
  87.8000        16
  87.8500        10
  87.9000        27
  87.9500        42
  88.0000       126
  88.0500       199
  88.1000       255
  88.1500       298
  88.2000       141
  88.2500        77
  88.3000       100
  88.3500       122
  88.4000       134
  88.4500       112
  88.5000        37
  88.5500        25
  88.6000        11
  88.6500        18
  88.7000         9
  88.7500        10
  88.8000         7
  88.8500         7
  88.9000         7
  88.9500         4
  89.0000         3
  89.0500        11
  89.1000         6
  89.1500        13
  89.2000         4
  89.2500         5
  89.3000         2
  89.3500         7
  89.4000         8
  89.4500         4
  89.5000         3
  89.5500         6
  89.6000         3
  89.6500         9
  89.7000         5
  89.7500         3
  89.8000         6
  89.8500         5
  89.9000         3
  89.9500         3
  90.0000         5
  90.0500         4
  90.1000         5
  90.1500        11
  90.2000         5
  90.2500         4
  90.3000         6
  90.3500         5
  90.4000         4
  90.4500         1
  90.5000         3
  90.5500         6
  90.6000        10
  90.6500         2
  90.7000         5
  90.7500         3
  90.8000         1
  90.8500         9
  90.9000         4
  90.9500         4
  91.0000         6
  91.0500         5
  91.1000         3
  91.1500         3
  91.2000         4
  91.2500         3
  91.3000         7
  91.3500        10
  91.4000         5
  91.4500         4
  91.5000         7
  91.5500         5
  91.6000         7
  91.6500         8
  91.7000         3
  91.7500         6
  91.8000         2
  91.8500         2
  91.9000         7
  91.9500         6
  92.0000         0
  92.0500         6
  92.1000         4
  92.1500         3
  92.2000         6
  92.2500         6
  92.3000         8
  92.3500         6
  92.4000         3
  92.4500         1
  92.5000         8
  92.5500         3
  92.6000         5
  92.6500         4
  92.7000         5
  92.7500         5
  92.8000         3
  92.8500         3
  92.9000         4
  92.9500         3
  93.0000         3
  93.0500         4
  93.1000         2
  93.1500         5
  93.2000         4
  93.2500         1
  93.3000         4
  93.3500         4
  93.4000         4
  93.4500         8
  93.5000         4
  93.5500         6
  93.6000         4
  93.6500         5
  93.7000         5
  93.7500         7
  93.8000         5
  93.8500         5
  93.9000         5
  93.9500         3
  94.0000         8
  94.0500         2
  94.1000         3
  94.1500         4
  94.2000         4
  94.2500         9
  94.3000         4
  94.3500         3
  94.4000         4
  94.4500         3
  94.5000         5
  94.5500         8
  94.6000         9
  94.6500        11
  94.7000         4
  94.7500         6
  94.8000         8
  94.8500        16
  94.9000        39
  94.9500        78
  95.0000        90
  95.0500        86
  95.1000        49
  95.1500        21
  95.2000        26
  95.2500        39
  95.3000        49
  95.3500        47
  95.4000        30
  95.4500        18
  95.5000         7
  95.5500         8
  95.6000         8
  95.6500         4
  95.7000         6
  95.7500         7
  95.8000         2
  95.8500         6
  95.9000         5
  95.9500         4
  96.0000         9
  96.0500         6
  96.1000         5
  96.1500        10
  96.2000         6
  96.2500         2
  96.3000         5
  96.3500         8
  96.4000         4
  96.4500         5
  96.5000         9
  96.5500         4
  96.6000         4
  96.6500         4
  96.7000         2
  96.7500         4
  96.8000         5
  96.8500         6
  96.9000         2
  96.9500         5
  97.0000         4
  97.0500         5
  97.1000         4
  97.1500         2
  97.2000         4
  97.2500         9
  97.3000         5
  97.3500         6
  97.4000         5
  97.4500         2
  97.5000         3
  97.5500         5
  97.6000         4
  97.6500         7
  97.7000         1
  97.7500         3
  97.8000         1
  97.8500         6
  97.9000         8
  97.9500         2
  98.0000         5
  98.0500         5
  98.1000         5
  98.1500         4
  98.2000         6
  98.2500         4
  98.3000         2
  98.3500         6
  98.4000         3
  98.4500         3
  98.5000         6
  98.5500         2
  98.6000         4
  98.6500         4
  98.7000         3
  98.7500         5
  98.8000         2
  98.8500         3
  98.9000         6
  98.9500         7
  99.0000         7
  99.0500         5
  99.1000         2
  99.1500         5
  99.2000         6
  99.2500         3
  99.3000         5
  99.3500         5
  99.4000         5
  99.4500         5
  99.5000         2
  99.5500         0
  99.6000         3
  99.6500         3
  99.7000         5
  99.7500         3
  99.8000         1
  99.8500         4
  99.9000         5
  99.9500         8
 100.0000         3
