   5.0000        11
   5.0500         7
   5.1000         7
   5.1500        13
   5.2000         5
   5.2500         9
   5.3000        15
   5.3500        11
   5.4000         6
   5.4500         2
   5.5000         7
   5.5500         3
   5.6000        13
   5.6500         5
   5.7000         3
   5.7500         5
   5.8000         8
   5.8500         4
   5.9000         4
   5.9500         7
   6.0000         6
   6.0500         9
   6.1000         4
   6.1500         8
   6.2000         6
   6.2500        10
   6.3000         9
   6.3500         6
   6.4000         5
   6.4500         6
   6.5000         7
   6.5500         4
   6.6000         7
   6.6500         3
   6.7000        10
   6.7500         3
   6.8000         6
   6.8500         2
   6.9000         3
   6.9500         6
   7.0000         2
   7.0500         3
   7.1000         4
   7.1500         6
   7.2000         4
   7.2500         6
   7.3000         2
   7.3500         7
   7.4000         4
   7.4500         7
   7.5000         7
   7.5500         4
   7.6000         1
   7.6500         5
   7.7000         6
   7.7500         7
   7.8000         8
   7.8500         7
   7.9000         6
   7.9500         5
   8.0000         5
   8.0500         4
   8.1000         6
   8.1500         4
   8.2000         4
   8.2500         5
   8.3000         4
   8.3500         5
   8.4000         4
   8.4500         2
   8.5000         4
   8.5500         5
   8.6000         4
   8.6500         2
   8.7000         1
   8.7500         5
   8.8000         9
   8.8500         5
   8.9000         5
   8.9500         0
   9.0000         3
   9.0500         6
   9.1000         6
   9.1500         9
   9.2000         5
   9.2500         6
   9.3000         3
   9.3500         4
   9.4000         4
   9.4500         3
   9.5000         1
   9.5500         6
   9.6000         4
   9.6500         2
   9.7000         3
   9.7500         9
   9.8000         3
   9.8500         4
   9.9000         2
   9.9500         4
  10.0000         2
  10.0500         6
  10.1000         2
  10.1500         3
  10.2000         6
  10.2500         3
  10.3000         3
  10.3500         6
  10.4000         4
  10.4500         6
  10.5000         2
  10.5500         7
  10.6000         3
  10.6500         3
  10.7000         6
  10.7500         3
  10.8000         3
  10.8500         2
  10.9000         5
  10.9500         6
  11.0000         4
  11.0500         5
  11.1000         5
  11.1500         2
  11.2000         5
  11.2500         2
  11.3000         2
  11.3500         6
  11.4000         4
  11.4500         5
  11.5000         5
  11.5500         3
  11.6000         2
  11.6500         6
  11.7000         4
  11.7500         3
  11.8000         5
  11.8500         3
  11.9000         0
  11.9500         6
  12.0000         3
  12.0500         2
  12.1000         1
  12.1500         2
  12.2000         5
  12.2500         3
  12.3000         3
  12.3500         3
  12.4000         5
  12.4500         3
  12.5000         2
  12.5500         5
  12.6000         2
  12.6500         2
  12.7000         7
  12.7500         2
  12.8000         5
  12.8500         4
  12.9000         1
  12.9500         2
  13.0000         5
  13.0500         2
  13.1000         2
  13.1500         4
  13.2000         4
  13.2500         3
  13.3000         1
  13.3500         7
  13.4000         3
  13.4500         7
  13.5000         2
  13.5500         4
  13.6000         2
  13.6500         2
  13.7000         1
  13.7500         5
  13.8000         0
  13.8500         3
  13.9000         6
  13.9500         3
  14.0000         3
  14.0500         1
  14.1000         2
  14.1500         0
  14.2000         1
  14.2500         3
  14.3000         5
  14.3500         3
  14.4000         3
  14.4500         3
  14.5000         1
  14.5500         1
  14.6000         1
  14.6500         1
  14.7000         2
  14.7500         2
  14.8000         1
  14.8500         3
  14.9000         2
  14.9500         4
  15.0000         4
  15.0500         2
  15.1000         5
  15.1500         5
  15.2000         4
  15.2500         2
  15.3000         3
  15.3500         2
  15.4000         4
  15.4500         4
  15.5000         1
  15.5500         1
  15.6000         2
  15.6500         3
  15.7000         8
  15.7500         1
  15.8000         4
  15.8500         0
  15.9000         2
  15.9500         4
  16.0000         0
  16.0500         2
  16.1000         1
  16.1500         5
  16.2000         2
  16.2500         3
  16.3000         2
  16.3500         6
  16.4000         2
  16.4500         2
  16.5000         2
  16.5500         1
  16.6000         2
  16.6500         1
  16.7000         3
  16.7500         5
  16.8000         4
  16.8500         4
  16.9000         2
  16.9500         0
  17.0000         4
  17.0500         3
  17.1000         4
  17.1500         2
  17.2000         5
  17.2500         3
  17.3000         2
  17.3500         5
  17.4000         3
  17.4500         3
  17.5000         0
  17.5500         0
  17.6000         5
  17.6500         3
  17.7000         2
  17.7500         5
  17.8000         2
  17.8500         2
  17.9000         2
  17.9500         4
  18.0000         2
  18.0500         2
  18.1000         4
  18.1500         1
  18.2000         2
  18.2500         3
  18.3000         0
  18.3500         2
  18.4000         3
  18.4500         2
  18.5000         1
  18.5500         1
  18.6000         3
  18.6500         1
  18.7000         2
  18.7500         3
  18.8000         3
  18.8500         2
  18.9000         6
  18.9500         1
  19.0000         1
  19.0500         2
  19.1000         1
  19.1500         2
  19.2000         1
  19.2500         3
  19.3000         2
  19.3500         2
  19.4000         2
  19.4500         4
  19.5000         1
  19.5500         4
  19.6000         0
  19.6500         6
  19.7000         5
  19.7500         2
  19.8000         3
  19.8500         0
  19.9000         0
  19.9500         1
  20.0000         2
  20.0500         2
  20.1000         3
  20.1500         3
  20.2000         1
  20.2500         3
  20.3000         4
  20.3500         3
  20.4000         2
  20.4500         4
  20.5000         4
  20.5500         5
  20.6000         1
  20.6500         0
  20.7000         2
  20.7500         6
  20.8000         6
  20.8500         7
  20.9000         4
  20.9500         2
  21.0000         5
  21.0500         2
  21.1000         1
  21.1500         0
  21.2000         6
  21.2500         3
  21.3000         2
  21.3500         1
  21.4000         2
  21.4500         3
  21.5000         2
  21.5500         5
  21.6000         2
  21.6500         1
  21.7000         1
  21.7500         0
  21.8000         7
  21.8500         4
  21.9000         2
  21.9500         2
  22.0000         2
  22.0500         2
  22.1000         5
  22.1500         4
  22.2000         3
  22.2500         4
  22.3000         2
  22.3500         0
  22.4000         2
  22.4500         2
  22.5000         6
  22.5500         1
  22.6000         2
  22.6500         1
  22.7000         3
  22.7500         4
  22.8000         3
  22.8500         5
  22.9000         3
  22.9500         1
  23.0000         3
  23.0500         0
  23.1000         3
  23.1500         5
  23.2000         4
  23.2500         2
  23.3000         2
  23.3500         1
  23.4000         1
  23.4500         2
  23.5000         1
  23.5500         4
  23.6000         3
  23.6500         2
  23.7000         3
  23.7500         4
  23.8000         2
  23.8500         1
  23.9000         4
  23.9500         3
  24.0000         4
  24.0500         3
  24.1000         5
  24.1500         1
  24.2000         1
  24.2500         1
  24.3000         4
  24.3500         2
  24.4000         1
  24.4500         2
  24.5000         5
  24.5500         1
  24.6000         2
  24.6500         9
  24.7000         7
  24.7500         9
  24.8000         5
  24.8500         4
  24.9000         3
  24.9500         1
  25.0000         3
  25.0500         4
  25.1000         3
  25.1500         2
  25.2000         1
  25.2500         0
  25.3000         1
  25.3500         0
  25.4000         3
  25.4500         6
  25.5000         5
  25.5500         2
  25.6000         3
  25.6500         4
  25.7000         1
  25.7500         5
  25.8000         2
  25.8500         2
  25.9000         2
  25.9500         5
  26.0000         8
  26.0500         4
  26.1000         3
  26.1500         4
  26.2000         4
  26.2500         6
  26.3000         9
  26.3500         4
  26.4000         7
  26.4500        10
  26.5000        18
  26.5500        13
  26.6000        20
  26.6500         9
  26.7000        21
  26.7500        12
  26.8000        20
  26.8500        13
  26.9000        15
  26.9500        29
  27.0000        29
  27.0500        38
  27.1000        84
  27.1500        99
  27.2000       172
  27.2500       745
  27.3000       821
  27.3500      3205
  27.4000      2583
  27.4500      2085
  27.5000       583
  27.5500       223
  27.6000        63
  27.6500        30
  27.7000        46
  27.7500        19
  27.8000        18
  27.8500        13
  27.9000        11
  27.9500         9
  28.0000        16
  28.0500        12
  28.1000         5
  28.1500         7
  28.2000         6
  28.2500         6
  28.3000         3
  28.3500         6
  28.4000         4
  28.4500         9
  28.5000         6
  28.5500         2
  28.6000         1
  28.6500         1
  28.7000         4
  28.7500         4
  28.8000         2
  28.8500         3
  28.9000         4
  28.9500         6
  29.0000         2
  29.0500         5
  29.1000         5
  29.1500         3
  29.2000         3
  29.2500         4
  29.3000         2
  29.3500         4
  29.4000         4
  29.4500         1
  29.5000         2
  29.5500         4
  29.6000         4
  29.6500         8
  29.7000         1
  29.7500         2
  29.8000         2
  29.8500         3
  29.9000         1
  29.9500         3
  30.0000         3
  30.0500         2
  30.1000         2
  30.1500         7
  30.2000         4
  30.2500         3
  30.3000         1
  30.3500         3
  30.4000         3
  30.4500         7
  30.5000         1
  30.5500         2
  30.6000         2
  30.6500         6
  30.7000         4
  30.7500         1
  30.8000         4
  30.8500         1
  30.9000         4
  30.9500         1
  31.0000         4
  31.0500         6
  31.1000         5
  31.1500         4
  31.2000         2
  31.2500         6
  31.3000         6
  31.3500         4
  31.4000         5
  31.4500         3
  31.5000         2
  31.5500         3
  31.6000         3
  31.6500         2
  31.7000         0
  31.7500         2
  31.8000         3
  31.8500         4
  31.9000         2
  31.9500         1
  32.0000         2
  32.0500         2
  32.1000         2
  32.1500         2
  32.2000         3
  32.2500         1
  32.3000         3
  32.3500         5
  32.4000         3
  32.4500         5
  32.5000         5
  32.5500         1
  32.6000         4
  32.6500         3
  32.7000         8
  32.7500         1
  32.8000         6
  32.8500         3
  32.9000         4
  32.9500         2
  33.0000         1
  33.0500         1
  33.1000         3
  33.1500         3
  33.2000         7
  33.2500         3
  33.3000         1
  33.3500         3
  33.4000         0
  33.4500         2
  33.5000         4
  33.5500         0
  33.6000         4
  33.6500         7
  33.7000         3
  33.7500         3
  33.8000         5
  33.8500         0
  33.9000         5
  33.9500         5
  34.0000         2
  34.0500         2
  34.1000         3
  34.1500         1
  34.2000         4
  34.2500         2
  34.3000         0
  34.3500         4
  34.4000         6
  34.4500         1
  34.5000         5
  34.5500         5
  34.6000         2
  34.6500         3
  34.7000         2
  34.7500         4
  34.8000         2
  34.8500         4
  34.9000         2
  34.9500         2
  35.0000         2
  35.0500         3
  35.1000         1
  35.1500         1
  35.2000         4
  35.2500         2
  35.3000         1
  35.3500         3
  35.4000         3
  35.4500         3
  35.5000         2
  35.5500         6
  35.6000         6
  35.6500         4
  35.7000         4
  35.7500         7
  35.8000         5
  35.8500         2
  35.9000         2
  35.9500         1
  36.0000         9
  36.0500         3
  36.1000         3
  36.1500         3
  36.2000         3
  36.2500         3
  36.3000         2
  36.3500         6
  36.4000         3
  36.4500         0
  36.5000         4
  36.5500         4
  36.6000         3
  36.6500         6
  36.7000         2
  36.7500         2
  36.8000         7
  36.8500         5
  36.9000         6
  36.9500         2
  37.0000         1
  37.0500         6
  37.1000         5
  37.1500         2
  37.2000         3
  37.2500         4
  37.3000         3
  37.3500         2
  37.4000         4
  37.4500         4
  37.5000         3
  37.5500         3
  37.6000         3
  37.6500         4
  37.7000         4
  37.7500         2
  37.8000         0
  37.8500         3
  37.9000         1
  37.9500         2
  38.0000         1
  38.0500         5
  38.1000         2
  38.1500         2
  38.2000         6
  38.2500         3
  38.3000         4
  38.3500         4
  38.4000         4
  38.4500         3
  38.5000         2
  38.5500         6
  38.6000         2
  38.6500         5
  38.7000         1
  38.7500         1
  38.8000         5
  38.8500         3
  38.9000         8
  38.9500         1
  39.0000         6
  39.0500         3
  39.1000         3
  39.1500         5
  39.2000         4
  39.2500         3
  39.3000         3
  39.3500         4
  39.4000         5
  39.4500         3
  39.5000         4
  39.5500         5
  39.6000         0
  39.6500         4
  39.7000         4
  39.7500         1
  39.8000         5
  39.8500         3
  39.9000         4
  39.9500         0
  40.0000         2
  40.0500         2
  40.1000         8
  40.1500         4
  40.2000         5
  40.2500         5
  40.3000         4
  40.3500         5
  40.4000         3
  40.4500         4
  40.5000         8
  40.5500         4
  40.6000         7
  40.6500         3
  40.7000         1
  40.7500         2
  40.8000         2
  40.8500         2
  40.9000         7
  40.9500         7
  41.0000         5
  41.0500         2
  41.1000         7
  41.1500         7
  41.2000         1
  41.2500         1
  41.3000         3
  41.3500         4
  41.4000         4
  41.4500         5
  41.5000         6
  41.5500         2
  41.6000         1
  41.6500         4
  41.7000         5
  41.7500         4
  41.8000         4
  41.8500         4
  41.9000         6
  41.9500         4
  42.0000         6
  42.0500         5
  42.1000         7
  42.1500         4
  42.2000         1
  42.2500         6
  42.3000         9
  42.3500         3
  42.4000         3
  42.4500         8
  42.5000         5
  42.5500         7
  42.6000         2
  42.6500         6
  42.7000         1
  42.7500         2
  42.8000         1
  42.8500         6
  42.9000         3
  42.9500         1
  43.0000         5
  43.0500         2
  43.1000         3
  43.1500         0
  43.2000         5
  43.2500         3
  43.3000         3
  43.3500         5
  43.4000         6
  43.4500         4
  43.5000         6
  43.5500         4
  43.6000         9
  43.6500         6
  43.7000         5
  43.7500         4
  43.8000         8
  43.8500         5
  43.9000         7
  43.9500         8
  44.0000         9
  44.0500         6
  44.1000         4
  44.1500         4
  44.2000         9
  44.2500         3
  44.3000         6
  44.3500        12
  44.4000         5
  44.4500         7
  44.5000         9
  44.5500        10
  44.6000         9
  44.6500         9
  44.7000         7
  44.7500        11
  44.8000        16
  44.8500        12
  44.9000        11
  44.9500        16
  45.0000        13
  45.0500        18
  45.1000        21
  45.1500        36
  45.2000        40
  45.2500       136
  45.3000       344
  45.3500       527
  45.4000      1085
  45.4500       976
  45.5000       675
  45.5500       493
  45.6000       242
  45.6500        87
  45.7000        33
  45.7500        18
  45.8000        20
  45.8500        13
  45.9000        13
  45.9500        16
  46.0000        14
  46.0500        14
  46.1000        14
  46.1500         8
  46.2000         6
  46.2500         5
  46.3000         7
  46.3500         7
  46.4000         8
  46.4500        13
  46.5000         4
  46.5500         3
  46.6000         7
  46.6500         7
  46.7000         4
  46.7500         7
  46.8000         5
  46.8500         5
  46.9000         7
  46.9500         2
  47.0000         4
  47.0500         5
  47.1000         2
  47.1500         5
  47.2000         3
  47.2500         5
  47.3000         7
  47.3500         6
  47.4000         6
  47.4500         6
  47.5000        10
  47.5500         4
  47.6000         5
  47.6500         5
  47.7000         7
  47.7500        10
  47.8000         7
  47.8500         8
  47.9000         7
  47.9500         1
  48.0000         9
  48.0500         7
  48.1000         6
  48.1500         2
  48.2000         9
  48.2500         4
  48.3000         7
  48.3500         6
  48.4000         3
  48.4500        13
  48.5000         7
  48.5500         4
  48.6000        10
  48.6500         1
  48.7000         5
  48.7500         2
  48.8000        10
  48.8500         5
  48.9000         3
  48.9500         5
  49.0000         3
  49.0500         5
  49.1000         6
  49.1500         5
  49.2000         5
  49.2500         7
  49.3000         7
  49.3500         6
  49.4000         5
  49.4500         7
  49.5000         6
  49.5500         4
  49.6000         4
  49.6500         5
  49.7000         6
  49.7500         3
  49.8000         9
  49.8500         2
  49.9000         1
  49.9500         3
  50.0000         6
  50.0500        10
  50.1000         4
  50.1500         1
  50.2000         3
  50.2500         4
  50.3000         3
  50.3500         4
  50.4000         5
  50.4500         5
  50.5000         5
  50.5500        10
  50.6000         5
  50.6500         4
  50.7000         6
  50.7500         5
  50.8000         5
  50.8500         2
  50.9000         6
  50.9500         1
  51.0000         5
  51.0500         3
  51.1000         3
  51.1500         7
  51.2000         6
  51.2500         4
  51.3000         4
  51.3500         2
  51.4000         9
  51.4500         7
  51.5000         3
  51.5500         3
  51.6000         8
  51.6500        14
  51.7000        11
  51.7500        11
  51.8000        13
  51.8500        18
  51.9000         9
  51.9500        12
  52.0000        13
  52.0500        10
  52.1000        12
  52.1500        10
  52.2000        22
  52.2500        24
  52.3000        19
  52.3500        15
  52.4000        17
  52.4500        18
  52.5000        12
  52.5500        20
  52.6000        32
  52.6500        14
  52.7000        15
  52.7500        24
  52.8000        26
  52.8500        22
  52.9000        29
  52.9500        23
  53.0000        21
  53.0500        26
  53.1000        31
  53.1500        43
  53.2000        40
  53.2500        46
  53.3000        46
  53.3500        92
  53.4000       125
  53.4500       190
  53.5000       186
  53.5500       385
  53.6000      1318
  53.6500      6409
  53.7000     10522
  53.7500      2350
  53.8000      5249
  53.8500      6448
  53.9000      1187
  53.9500       926
  54.0000      1062
  54.0500       255
  54.1000       110
  54.1500        80
  54.2000        61
  54.2500        54
  54.3000        35
  54.3500        34
  54.4000        41
  54.4500        32
  54.5000        26
  54.5500        28
  54.6000        29
  54.6500        18
  54.7000        25
  54.7500        15
  54.8000        15
  54.8500        12
  54.9000        15
  54.9500        17
  55.0000        15
  55.0500         8
  55.1000         9
  55.1500         9
  55.2000         7
  55.2500         6
  55.3000         8
  55.3500         9
  55.4000         9
  55.4500         8
  55.5000         5
  55.5500         7
  55.6000         9
  55.6500         7
  55.7000         5
  55.7500         7
  55.8000         9
  55.8500         4
  55.9000         8
  55.9500         2
  56.0000         7
  56.0500         5
  56.1000         2
  56.1500         9
  56.2000         1
  56.2500         6
  56.3000         6
  56.3500         5
  56.4000        10
  56.4500         4
  56.5000         2
  56.5500         5
  56.6000         7
  56.6500         6
  56.7000         2
  56.7500         5
  56.8000         3
  56.8500         8
  56.9000         4
  56.9500         2
  57.0000         4
  57.0500         3
  57.1000         6
  57.1500         3
  57.2000         2
  57.2500         3
  57.3000         2
  57.3500         3
  57.4000         2
  57.4500         5
  57.5000         6
  57.5500         2
  57.6000         4
  57.6500         4
  57.7000         6
  57.7500         1
  57.8000         4
  57.8500         5
  57.9000         2
  57.9500         2
  58.0000         4
  58.0500         3
  58.1000         3
  58.1500         4
  58.2000         4
  58.2500         4
  58.3000         4
  58.3500         6
  58.4000         3
  58.4500         1
  58.5000         2
  58.5500         2
  58.6000         4
  58.6500         2
  58.7000         3
  58.7500         6
  58.8000         6
  58.8500         2
  58.9000         0
  58.9500         4
  59.0000         3
  59.0500         6
  59.1000         7
  59.1500         5
  59.2000         3
  59.2500         5
  59.3000         5
  59.3500         3
  59.4000         2
  59.4500         6
  59.5000         4
  59.5500         3
  59.6000         4
  59.6500         3
  59.7000         2
  59.7500         6
  59.8000         2
  59.8500         5
  59.9000         2
  59.9500         4
  60.0000         3
  60.0500         3
  60.1000         3
  60.1500         2
  60.2000         1
  60.2500         1
  60.3000         2
  60.3500         2
  60.4000         0
  60.4500         2
  60.5000         0
  60.5500         4
  60.6000         3
  60.6500         1
  60.7000         4
  60.7500         3
  60.8000         8
  60.8500         1
  60.9000         4
  60.9500         1
  61.0000         5
  61.0500         4
  61.1000         5
  61.1500         4
  61.2000         5
  61.2500         2
  61.3000         2
  61.3500         3
  61.4000         1
  61.4500         3
  61.5000         5
  61.5500         3
  61.6000         1
  61.6500         2
  61.7000         1
  61.7500         4
  61.8000         0
  61.8500         2
  61.9000         3
  61.9500         4
  62.0000         1
  62.0500         2
  62.1000         3
  62.1500         1
  62.2000         4
  62.2500         4
  62.3000         2
  62.3500         2
  62.4000         2
  62.4500         1
  62.5000         8
  62.5500         2
  62.6000         2
  62.6500         1
  62.7000         4
  62.7500         3
  62.8000         5
  62.8500         6
  62.9000         4
  62.9500         4
  63.0000         3
  63.0500         1
  63.1000         4
  63.1500         2
  63.2000         3
  63.2500         4
  63.3000         1
  63.3500         0
  63.4000         1
  63.4500         1
  63.5000         1
  63.5500         1
  63.6000         6
  63.6500         5
  63.7000         2
  63.7500         2
  63.8000         5
  63.8500         5
  63.9000         3
  63.9500         4
  64.0000         3
  64.0500         3
  64.1000         1
  64.1500         6
  64.2000         4
  64.2500         2
  64.3000         3
  64.3500         3
  64.4000         0
  64.4500         1
  64.5000         4
  64.5500         2
  64.6000         4
  64.6500         3
  64.7000         2
  64.7500         2
  64.8000         6
  64.8500         1
  64.9000         8
  64.9500         2
  65.0000         6
  65.0500         1
  65.1000         1
  65.1500         4
  65.2000         2
  65.2500         6
  65.3000         7
  65.3500         2
  65.4000         4
  65.4500         3
  65.5000         7
  65.5500         7
  65.6000         2
  65.6500         4
  65.7000         2
  65.7500         7
  65.8000         8
  65.8500         5
  65.9000         5
  65.9500        15
  66.0000        38
  66.0500        83
  66.1000        46
  66.1500        36
  66.2000        46
  66.2500        33
  66.3000        20
  66.3500        14
  66.4000        10
  66.4500         6
  66.5000         2
  66.5500         7
  66.6000         4
  66.6500         2
  66.7000         5
  66.7500         4
  66.8000         9
  66.8500         4
  66.9000         7
  66.9500         4
  67.0000         3
  67.0500         3
  67.1000         5
  67.1500         3
  67.2000         2
  67.2500         6
  67.3000         3
  67.3500         3
  67.4000         3
  67.4500         3
  67.5000         6
  67.5500         3
  67.6000         1
  67.6500         4
  67.7000         3
  67.7500         3
  67.8000         1
  67.8500         1
  67.9000         3
  67.9500         3
  68.0000         3
  68.0500         4
  68.1000         5
  68.1500         2
  68.2000         2
  68.2500         2
  68.3000         1
  68.3500         1
  68.4000         1
  68.4500         4
  68.5000         1
  68.5500         3
  68.6000         1
  68.6500         2
  68.7000         0
  68.7500         2
  68.8000         3
  68.8500         3
  68.9000         3
  68.9500         1
  69.0000         3
  69.0500         0
  69.1000         3
  69.1500         1
  69.2000         1
  69.2500         1
  69.3000         3
  69.3500         5
  69.4000         5
  69.4500         0
  69.5000         5
  69.5500         5
  69.6000         3
  69.6500         4
  69.7000         1
  69.7500         4
  69.8000         1
  69.8500         3
  69.9000         3
  69.9500         3
  70.0000         1
  70.0500         4
  70.1000         1
  70.1500         3
  70.2000         2
  70.2500         3
  70.3000         3
  70.3500         3
  70.4000         3
  70.4500         6
  70.5000         5
  70.5500         3
  70.6000         2
  70.6500         1
  70.7000         4
  70.7500         5
  70.8000         3
  70.8500         2
  70.9000         5
  70.9500         7
  71.0000         4
  71.0500         4
  71.1000         4
  71.1500         3
  71.2000         5
  71.2500         4
  71.3000         3
  71.3500         5
  71.4000        12
  71.4500         3
  71.5000         5
  71.5500         4
  71.6000         3
  71.6500         5
  71.7000         2
  71.7500         2
  71.8000         7
  71.8500         2
  71.9000         3
  71.9500         8
  72.0000         5
  72.0500         4
  72.1000         7
  72.1500         4
  72.2000         4
  72.2500         3
  72.3000         5
  72.3500         6
  72.4000         9
  72.4500         5
  72.5000        10
  72.5500         9
  72.6000         4
  72.6500        17
  72.7000        12
  72.7500        17
  72.8000        37
  72.8500       110
  72.9000       134
  72.9500       153
  73.0000       126
  73.0500        65
  73.1000        52
  73.1500        93
  73.2000        61
  73.2500        30
  73.3000        11
  73.3500         6
  73.4000         8
  73.4500         5
  73.5000         6
  73.5500         6
  73.6000         4
  73.6500         9
  73.7000         4
  73.7500         7
  73.8000         7
  73.8500         8
  73.9000         5
  73.9500         5
  74.0000         3
  74.0500         4
  74.1000         8
  74.1500         5
  74.2000         2
  74.2500         7
  74.3000         3
  74.3500         3
  74.4000         4
  74.4500         8
  74.5000         5
  74.5500         5
  74.6000         7
  74.6500         6
  74.7000         2
  74.7500         4
  74.8000         3
  74.8500         5
  74.9000         3
  74.9500         4
  75.0000         2
  75.0500         2
  75.1000         5
  75.1500         7
  75.2000         5
  75.2500         3
  75.3000         7
  75.3500         3
  75.4000         3
  75.4500         5
  75.5000         8
  75.5500         5
  75.6000         5
  75.6500         6
  75.7000         2
  75.7500         5
  75.8000         5
  75.8500         6
  75.9000         2
  75.9500         5
  76.0000         7
  76.0500         2
  76.1000         6
  76.1500         6
  76.2000         1
  76.2500         5
  76.3000         7
  76.3500         4
  76.4000         5
  76.4500         7
  76.5000         8
  76.5500         5
  76.6000         6
  76.6500         3
  76.7000         7
  76.7500         5
  76.8000         4
  76.8500         6
  76.9000         5
  76.9500         4
  77.0000         9
  77.0500         9
  77.1000         4
  77.1500         5
  77.2000         8
  77.2500         7
  77.3000         3
  77.3500         3
  77.4000         3
  77.4500         6
  77.5000         7
  77.5500         6
  77.6000         3
  77.6500         2
  77.7000         4
  77.7500         3
  77.8000         3
  77.8500         3
  77.9000         4
  77.9500         3
  78.0000         4
  78.0500         5
  78.1000         3
  78.1500         2
  78.2000         1
  78.2500         4
  78.3000         2
  78.3500         9
  78.4000         5
  78.4500         3
  78.5000         4
  78.5500         6
  78.6000         3
  78.6500         2
  78.7000         7
  78.7500         7
  78.8000         6
  78.8500         4
  78.9000         0
  78.9500         5
  79.0000         2
  79.0500         3
  79.1000         3
  79.1500         5
  79.2000         5
  79.2500         3
  79.3000        10
  79.3500         4
  79.4000         6
  79.4500         6
  79.5000         8
  79.5500         6
  79.6000         9
  79.6500         2
  79.7000         4
  79.7500         3
  79.8000         7
  79.8500         6
  79.9000         1
  79.9500         4
  80.0000         2
  80.0500         5
  80.1000         1
  80.1500         6
  80.2000         3
  80.2500         3
  80.3000         7
  80.3500         8
  80.4000         7
  80.4500         3
  80.5000         6
  80.5500         7
  80.6000         3
  80.6500         4
  80.7000         2
  80.7500         3
  80.8000         4
  80.8500         7
  80.9000         7
  80.9500         5
  81.0000         2
  81.0500        10
  81.1000         3
  81.1500         5
  81.2000         7
  81.2500         6
  81.3000        10
  81.3500         1
  81.4000         3
  81.4500         4
  81.5000        10
  81.5500         5
  81.6000        11
  81.6500         3
  81.7000         3
  81.7500         3
  81.8000         8
  81.8500         5
  81.9000         5
  81.9500         7
  82.0000         6
  82.0500         4
  82.1000         8
  82.1500         5
  82.2000         7
  82.2500         2
  82.3000         8
  82.3500         4
  82.4000         1
  82.4500         8
  82.5000        10
  82.5500         7
  82.6000         6
  82.6500         5
  82.7000         3
  82.7500         6
  82.8000         9
  82.8500         3
  82.9000         9
  82.9500         5
  83.0000         6
  83.0500         8
  83.1000         8
  83.1500        10
  83.2000        11
  83.2500        10
  83.3000        16
  83.3500        15
  83.4000        11
  83.4500        25
  83.5000        25
  83.5500        29
  83.6000        64
  83.6500       182
  83.7000       466
  83.7500       806
  83.8000       638
  83.8500       235
  83.9000       129
  83.9500       234
  84.0000       443
  84.0500       343
  84.1000       136
  84.1500        40
  84.2000        25
  84.2500        20
  84.3000         7
  84.3500        13
  84.4000        12
  84.4500        10
  84.5000        10
  84.5500        12
  84.6000        15
  84.6500         4
  84.7000         3
  84.7500         4
  84.8000         6
  84.8500        11
  84.9000        12
  84.9500         7
  85.0000         7
  85.0500         2
  85.1000         6
  85.1500         8
  85.2000        11
  85.2500         5
  85.3000         4
  85.3500         7
  85.4000         6
  85.4500         8
  85.5000         4
  85.5500         6
  85.6000         5
  85.6500        11
  85.7000         5
  85.7500         7
  85.8000        10
  85.8500         9
  85.9000        11
  85.9500         7
  86.0000         7
  86.0500         7
  86.1000         4
  86.1500         4
  86.2000         6
  86.2500         7
  86.3000         4
  86.3500         3
  86.4000         4
  86.4500         3
  86.5000         6
  86.5500         6
  86.6000         3
  86.6500         4
  86.7000         5
  86.7500         4
  86.8000         6
  86.8500         6
  86.9000         4
  86.9500         4
  87.0000         2
  87.0500         2
  87.1000         5
  87.1500         7
  87.2000         4
  87.2500         5
  87.3000         2
  87.3500         6
  87.4000         4
  87.4500         6
  87.5000         7
  87.5500         2
  87.6000         6
  87.6500         5
  87.7000         4
  87.7500         3
  87.8000         4
  87.8500         8
  87.9000         6
  87.9500         0
  88.0000         3
  88.0500         2
  88.1000         3
  88.1500         3
  88.2000         4
  88.2500         5
  88.3000         5
  88.3500         8
  88.4000         3
  88.4500         8
  88.5000         4
  88.5500         6
  88.6000         4
  88.6500         4
  88.7000         6
  88.7500         3
  88.8000         5
  88.8500         2
  88.9000        11
  88.9500         3
  89.0000         6
  89.0500         6
  89.1000         6
  89.1500         8
  89.2000         6
  89.2500         5
  89.3000        11
  89.3500         5
  89.4000         5
  89.4500         5
  89.5000         4
  89.5500         6
  89.6000         3
  89.6500         6
  89.7000         8
  89.7500         6
  89.8000         3
  89.8500         9
  89.9000         4
  89.9500         4
  90.0000        14
  90.0500        31
  90.1000        35
  90.1500        53
  90.2000        54
  90.2500        21
  90.3000        24
  90.3500        18
  90.4000        32
  90.4500        23
  90.5000        20
  90.5500        11
  90.6000         8
  90.6500         2
  90.7000         4
  90.7500         3
  90.8000         4
  90.8500         9
  90.9000         6
  90.9500         8
  91.0000         3
  91.0500         2
  91.1000         5
  91.1500         7
  91.2000         4
  91.2500         5
  91.3000         2
  91.3500         5
  91.4000         1
  91.4500         4
  91.5000         4
  91.5500         1
  91.6000         6
  91.6500         7
  91.7000         0
  91.7500         5
  91.8000         2
  91.8500         6
  91.9000         6
  91.9500         9
  92.0000         4
  92.0500         8
  92.1000         2
  92.1500         1
  92.2000         6
  92.2500         3
  92.3000         5
  92.3500         3
  92.4000         4
  92.4500         1
  92.5000         1
  92.5500         2
  92.6000         8
  92.6500         4
  92.7000         9
  92.7500         4
  92.8000         2
  92.8500         5
  92.9000         6
  92.9500         8
  93.0000         2
  93.0500         3
  93.1000         3
  93.1500         6
  93.2000         4
  93.2500         8
  93.3000         2
  93.3500         5
  93.4000         4
  93.4500         6
  93.5000         3
  93.5500         6
  93.6000         9
  93.6500         5
  93.7000         7
  93.7500         4
  93.8000         4
  93.8500         5
  93.9000         4
  93.9500         6
  94.0000         6
  94.0500         7
  94.1000         3
  94.1500         3
  94.2000         3
  94.2500         1
  94.3000         5
  94.3500         2
  94.4000         3
  94.4500         1
  94.5000         8
  94.5500         3
  94.6000         1
  94.6500         1
  94.7000         6
  94.7500         2
  94.8000         5
  94.8500         8
  94.9000         3
  94.9500         4
  95.0000         3
  95.0500         4
  95.1000         3
  95.1500         5
  95.2000         5
  95.2500         3
  95.3000         3
  95.3500         5
  95.4000         6
  95.4500         4
  95.5000         4
  95.5500         1
  95.6000         2
  95.6500         7
  95.7000         5
  95.7500         7
  95.8000         3
  95.8500         4
  95.9000         9
  95.9500         3
  96.0000         5
  96.0500         4
  96.1000         4
  96.1500         2
  96.2000         3
  96.2500         2
  96.3000         3
  96.3500         5
  96.4000         1
  96.4500         2
  96.5000         4
  96.5500         1
  96.6000         1
  96.6500         2
  96.7000         6
  96.7500         5
  96.8000         6
  96.8500         2
  96.9000         6
  96.9500         1
  97.0000         3
  97.0500         3
  97.1000         3
  97.1500         3
  97.2000         3
  97.2500         5
  97.3000         3
  97.3500         7
  97.4000         4
  97.4500         7
  97.5000         1
  97.5500         3
  97.6000         7
  97.6500         6
  97.7000         1
  97.7500         0
  97.8000         8
  97.8500         0
  97.9000         8
  97.9500         7
  98.0000         4
  98.0500         3
  98.1000         5
  98.1500         2
  98.2000         4
  98.2500         3
  98.3000         3
  98.3500         4
  98.4000         5
  98.4500         8
  98.5000         0
  98.5500        10
  98.6000         2
  98.6500         5
  98.7000         4
  98.7500         4
  98.8000         4
  98.8500         5
  98.9000         4
  98.9500         5
  99.0000         2
  99.0500         6
  99.1000         2
  99.1500         4
  99.2000         8
  99.2500         9
  99.3000         5
  99.3500         2
  99.4000         5
  99.4500         3
  99.5000         6
  99.5500         4
  99.6000         2
  99.6500         7
  99.7000         4
  99.7500         2
  99.8000         2
  99.8500         7
  99.9000         7
  99.9500         4
 100.0000         3
