  10.0000        11
  10.0500         7
  10.1000         6
  10.1500        11
  10.2000        16
  10.2500        10
  10.3000        15
  10.3500         9
  10.4000         7
  10.4500        11
  10.5000         3
  10.5500         8
  10.6000         9
  10.6500         6
  10.7000         5
  10.7500        10
  10.8000         6
  10.8500        11
  10.9000         4
  10.9500         4
  11.0000         2
  11.0500         9
  11.1000         2
  11.1500         5
  11.2000         6
  11.2500         2
  11.3000         6
  11.3500         6
  11.4000         5
  11.4500         4
  11.5000         6
  11.5500         4
  11.6000        10
  11.6500         5
  11.7000         4
  11.7500         3
  11.8000        10
  11.8500         3
  11.9000         4
  11.9500         7
  12.0000         7
  12.0500         3
  12.1000         5
  12.1500         8
  12.2000         5
  12.2500         5
  12.3000         6
  12.3500         4
  12.4000         6
  12.4500         5
  12.5000         5
  12.5500         3
  12.6000         9
  12.6500         5
  12.7000         5
  12.7500         3
  12.8000         2
  12.8500         5
  12.9000         0
  12.9500         4
  13.0000         2
  13.0500         2
  13.1000         3
  13.1500         5
  13.2000         4
  13.2500         4
  13.3000         4
  13.3500         3
  13.4000         7
  13.4500         6
  13.5000         3
  13.5500         8
  13.6000         3
  13.6500         2
  13.7000         8
  13.7500         7
  13.8000         7
  13.8500         5
  13.9000         4
  13.9500         6
  14.0000         8
  14.0500        13
  14.1000         5
  14.1500         1
  14.2000         6
  14.2500        10
  14.3000         6
  14.3500         6
  14.4000         8
  14.4500        11
  14.5000        16
  14.5500        14
  14.6000         5
  14.6500         8
  14.7000         3
  14.7500         2
  14.8000         4
  14.8500         5
  14.9000         2
  14.9500         1
  15.0000         3
  15.0500         4
  15.1000         2
  15.1500         2
  15.2000         5
  15.2500         2
  15.3000         3
  15.3500         7
  15.4000         8
  15.4500         3
  15.5000         1
  15.5500         2
  15.6000         1
  15.6500         8
  15.7000         6
  15.7500         4
  15.8000         6
  15.8500         4
  15.9000         6
  15.9500         8
  16.0000         5
  16.0500         4
  16.1000         4
  16.1500         2
  16.2000         7
  16.2500         2
  16.3000         4
  16.3500         1
  16.4000         4
  16.4500         4
  16.5000         1
  16.5500         4
  16.6000         3
  16.6500         1
  16.7000         2
  16.7500         2
  16.8000         5
  16.8500         2
  16.9000         2
  16.9500         6
  17.0000         2
  17.0500         4
  17.1000         2
  17.1500         1
  17.2000         1
  17.2500         1
  17.3000         3
  17.3500         2
  17.4000         6
  17.4500         1
  17.5000         3
  17.5500         4
  17.6000         4
  17.6500         0
  17.7000         4
  17.7500         5
  17.8000         4
  17.8500         1
  17.9000         4
  17.9500         1
  18.0000         2
  18.0500         6
  18.1000         1
  18.1500         3
  18.2000         4
  18.2500        11
  18.3000         2
  18.3500         5
  18.4000         2
  18.4500         4
  18.5000         0
  18.5500         4
  18.6000         5
  18.6500         2
  18.7000         2
  18.7500         2
  18.8000         4
  18.8500         1
  18.9000         6
  18.9500         2
  19.0000         1
  19.0500         4
  19.1000         6
  19.1500         4
  19.2000         6
  19.2500         6
  19.3000         2
  19.3500         6
  19.4000         2
  19.4500         7
  19.5000         2
  19.5500         0
  19.6000         7
  19.6500         5
  19.7000         6
  19.7500         5
  19.8000         6
  19.8500         4
  19.9000         5
  19.9500         4
  20.0000         4
  20.0500         3
  20.1000         3
  20.1500         4
  20.2000         6
  20.2500         2
  20.3000         2
  20.3500         6
  20.4000         9
  20.4500         5
  20.5000         3
  20.5500         2
  20.6000         3
  20.6500         7
  20.7000         5
  20.7500        11
  20.8000         4
  20.8500         6
  20.9000         5
  20.9500         6
  21.0000         4
  21.0500         6
  21.1000         9
  21.1500         1
  21.2000         3
  21.2500         3
  21.3000         6
  21.3500         8
  21.4000         3
  21.4500         5
  21.5000         7
  21.5500         6
  21.6000         5
  21.6500         7
  21.7000         2
  21.7500         3
  21.8000         3
  21.8500         4
  21.9000         3
  21.9500         7
  22.0000         6
  22.0500         3
  22.1000         4
  22.1500         1
  22.2000         6
  22.2500         3
  22.3000         3
  22.3500         7
  22.4000         5
  22.4500         2
  22.5000         7
  22.5500        10
  22.6000         6
  22.6500         4
  22.7000         4
  22.7500        11
  22.8000         4
  22.8500        10
  22.9000         9
  22.9500         8
  23.0000        14
  23.0500        10
  23.1000         7
  23.1500        13
  23.2000        10
  23.2500         7
  23.3000        10
  23.3500         9
  23.4000        11
  23.4500         3
  23.5000         5
  23.5500        11
  23.6000         5
  23.6500         6
  23.7000         4
  23.7500         4
  23.8000         6
  23.8500         6
  23.9000         3
  23.9500         6
  24.0000         3
  24.0500         5
  24.1000         5
  24.1500         6
  24.2000         5
  24.2500         8
  24.3000         3
  24.3500         6
  24.4000         3
  24.4500         7
  24.5000         7
  24.5500         7
  24.6000        10
  24.6500        10
  24.7000         7
  24.7500         7
  24.8000        10
  24.8500        10
  24.9000         8
  24.9500        10
  25.0000         5
  25.0500         6
  25.1000         6
  25.1500         7
  25.2000         5
  25.2500         8
  25.3000        13
  25.3500         8
  25.4000         3
  25.4500         2
  25.5000         4
  25.5500         3
  25.6000        15
  25.6500         9
  25.7000         2
  25.7500         3
  25.8000         3
  25.8500         3
  25.9000         9
  25.9500         3
  26.0000         5
  26.0500         6
  26.1000         5
  26.1500         6
  26.2000         8
  26.2500         7
  26.3000         5
  26.3500         8
  26.4000         7
  26.4500         4
  26.5000         5
  26.5500         8
  26.6000         7
  26.6500         5
  26.7000         6
  26.7500         8
  26.8000        10
  26.8500         9
  26.9000         7
  26.9500         4
  27.0000        12
  27.0500        17
  27.1000        13
  27.1500        11
  27.2000         7
  27.2500         6
  27.3000        11
  27.3500         8
  27.4000         8
  27.4500         9
  27.5000        11
  27.5500         9
  27.6000         7
  27.6500        12
  27.7000        10
  27.7500         7
  27.8000        12
  27.8500         3
  27.9000         9
  27.9500        11
  28.0000         7
  28.0500        10
  28.1000        12
  28.1500        14
  28.2000        10
  28.2500         7
  28.3000        20
  28.3500        16
  28.4000        16
  28.4500        19
  28.5000         7
  28.5500        15
  28.6000        14
  28.6500         9
  28.7000         5
  28.7500         8
  28.8000        10
  28.8500         5
  28.9000        12
  28.9500         5
  29.0000         6
  29.0500         7
  29.1000         6
  29.1500         4
  29.2000        10
  29.2500         6
  29.3000         9
  29.3500        12
  29.4000         6
  29.4500         7
  29.5000         6
  29.5500        14
  29.6000        16
  29.6500        10
  29.7000         6
  29.7500         4
  29.8000         7
  29.8500         8
  29.9000         4
  29.9500        10
  30.0000        10
  30.0500         3
  30.1000         3
  30.1500         6
  30.2000         9
  30.2500         7
  30.3000        11
  30.3500        17
  30.4000        14
  30.4500        27
  30.5000        16
  30.5500        18
  30.6000        24
  30.6500        15
  30.7000        32
  30.7500        18
  30.8000        22
  30.8500        19
  30.9000        26
  30.9500        17
  31.0000        27
  31.0500        19
  31.1000        31
  31.1500        57
  31.2000       125
  31.2500       205
  31.3000       509
  31.3500       837
  31.4000       905
  31.4500       702
  31.5000       372
  31.5500       156
  31.6000        55
  31.6500        28
  31.7000        30
  31.7500        24
  31.8000        14
  31.8500        18
  31.9000        17
  31.9500        12
  32.0000        11
  32.0500        17
  32.1000        15
  32.1500        15
  32.2000        17
  32.2500        12
  32.3000        14
  32.3500        11
  32.4000        11
  32.4500         8
  32.5000         7
  32.5500         7
  32.6000        13
  32.6500        10
  32.7000         4
  32.7500         7
  32.8000         7
  32.8500         6
  32.9000         8
  32.9500         3
  33.0000         1
  33.0500         8
  33.1000         7
  33.1500        11
  33.2000         7
  33.2500        16
  33.3000         9
  33.3500        10
  33.4000         9
  33.4500         8
  33.5000         3
  33.5500         6
  33.6000         8
  33.6500         7
  33.7000        12
  33.7500         7
  33.8000         5
  33.8500         6
  33.9000        10
  33.9500         6
  34.0000         5
  34.0500         6
  34.1000         9
  34.1500        14
  34.2000         8
  34.2500        13
  34.3000        17
  34.3500        18
  34.4000        12
  34.4500         7
  34.5000         7
  34.5500         5
  34.6000         8
  34.6500         7
  34.7000         5
  34.7500         9
  34.8000         7
  34.8500         4
  34.9000         3
  34.9500         7
  35.0000         3
  35.0500        13
  35.1000        15
  35.1500         8
  35.2000         9
  35.2500         5
  35.3000        17
  35.3500         7
  35.4000        11
  35.4500        10
  35.5000         5
  35.5500        12
  35.6000        12
  35.6500         7
  35.7000        15
  35.7500        14
  35.8000        11
  35.8500        18
  35.9000        15
  35.9500         8
  36.0000        15
  36.0500        20
  36.1000        29
  36.1500        38
  36.2000        71
  36.2500       171
  36.3000       299
  36.3500       420
  36.4000       414
  36.4500       324
  36.5000       178
  36.5500        90
  36.6000        47
  36.6500        25
  36.7000        18
  36.7500        18
  36.8000        12
  36.8500        10
  36.9000         8
  36.9500         4
  37.0000         8
  37.0500         4
  37.1000        10
  37.1500         6
  37.2000         8
  37.2500         8
  37.3000         7
  37.3500         6
  37.4000         8
  37.4500         2
  37.5000         6
  37.5500        12
  37.6000         7
  37.6500         9
  37.7000         4
  37.7500         1
  37.8000         2
  37.8500         5
  37.9000         5
  37.9500        10
  38.0000         4
  38.0500         5
  38.1000         2
  38.1500         5
  38.2000         4
  38.2500         3
  38.3000         6
  38.3500         5
  38.4000         6
  38.4500         2
  38.5000        10
  38.5500         3
  38.6000         3
  38.6500         5
  38.7000         6
  38.7500         4
  38.8000         5
  38.8500         4
  38.9000         2
  38.9500         3
  39.0000         4
  39.0500         8
  39.1000         6
  39.1500         4
  39.2000         7
  39.2500         3
  39.3000         2
  39.3500         4
  39.4000         9
  39.4500         7
  39.5000         0
  39.5500         2
  39.6000         7
  39.6500         3
  39.7000         3
  39.7500         3
  39.8000         2
  39.8500         7
  39.9000         3
  39.9500         2
  40.0000         5
  40.0500         1
  40.1000         4
  40.1500         4
  40.2000         4
  40.2500         5
  40.3000         2
  40.3500         5
  40.4000         3
  40.4500         4
  40.5000         7
  40.5500         5
  40.6000         7
  40.6500         6
  40.7000         6
  40.7500         8
  40.8000        10
  40.8500         4
  40.9000         2
  40.9500         7
  41.0000         4
  41.0500         5
  41.1000         5
  41.1500         4
  41.2000         7
  41.2500         3
  41.3000         5
  41.3500         2
  41.4000         5
  41.4500         3
  41.5000         5
  41.5500         4
  41.6000         4
  41.6500         2
  41.7000         6
  41.7500         5
  41.8000         3
  41.8500         3
  41.9000         0
  41.9500         7
  42.0000         0
  42.0500         5
  42.1000         4
  42.1500         3
  42.2000         4
  42.2500         5
  42.3000         5
  42.3500         5
  42.4000         3
  42.4500         4
  42.5000         6
  42.5500         6
  42.6000         8
  42.6500         9
  42.7000         6
  42.7500        14
  42.8000         5
  42.8500         3
  42.9000         4
  42.9500         4
  43.0000         3
  43.0500         7
  43.1000         2
  43.1500         2
  43.2000         5
  43.2500         5
  43.3000         7
  43.3500         7
  43.4000         3
  43.4500         3
  43.5000         4
  43.5500         7
  43.6000         5
  43.6500         5
  43.7000         3
  43.7500         7
  43.8000         5
  43.8500         4
  43.9000         6
  43.9500         4
  44.0000         3
  44.0500         3
  44.1000         4
  44.1500         4
  44.2000         7
  44.2500         4
  44.3000         4
  44.3500         2
  44.4000         4
  44.4500         9
  44.5000         4
  44.5500         3
  44.6000         7
  44.6500         7
  44.7000        10
  44.7500         7
  44.8000         6
  44.8500         4
  44.9000         5
  44.9500         8
  45.0000         6
  45.0500         9
  45.1000         3
  45.1500         4
  45.2000         3
  45.2500         4
  45.3000         7
  45.3500         3
  45.4000         2
  45.4500         5
  45.5000         6
  45.5500         6
  45.6000         7
  45.6500         2
  45.7000         2
  45.7500         4
  45.8000         2
  45.8500         5
  45.9000         3
  45.9500         7
  46.0000         3
  46.0500         6
  46.1000         2
  46.1500         3
  46.2000         3
  46.2500         8
  46.3000         4
  46.3500         2
  46.4000         1
  46.4500         7
  46.5000         6
  46.5500         3
  46.6000         7
  46.6500        11
  46.7000         4
  46.7500         6
  46.8000         2
  46.8500         3
  46.9000         7
  46.9500         6
  47.0000         6
  47.0500         1
  47.1000         2
  47.1500         5
  47.2000         0
  47.2500         3
  47.3000         1
  47.3500         1
  47.4000        12
  47.4500         8
  47.5000         5
  47.5500         3
  47.6000         5
  47.6500         4
  47.7000         5
  47.7500         4
  47.8000         2
  47.8500         3
  47.9000         4
  47.9500         6
  48.0000         4
  48.0500         0
  48.1000         8
  48.1500        14
  48.2000         6
  48.2500         4
  48.3000         5
  48.3500         3
  48.4000         2
  48.4500        10
  48.5000         4
  48.5500         4
  48.6000         2
  48.6500         3
  48.7000         6
  48.7500         7
  48.8000         6
  48.8500         5
  48.9000         6
  48.9500         3
  49.0000         6
  49.0500         5
  49.1000         2
  49.1500         5
  49.2000         3
  49.2500         4
  49.3000         1
  49.3500         5
  49.4000         4
  49.4500         2
  49.5000         8
  49.5500         4
  49.6000         4
  49.6500         6
  49.7000         4
  49.7500         4
  49.8000         3
  49.8500         2
  49.9000         6
  49.9500         7
  50.0000         2
  50.0500         5
  50.1000         7
  50.1500         6
  50.2000         6
  50.2500         6
  50.3000        10
  50.3500         5
  50.4000         6
  50.4500         4
  50.5000        10
  50.5500         4
  50.6000         4
  50.6500         1
  50.7000         5
  50.7500         3
  50.8000         8
  50.8500         3
  50.9000         4
  50.9500         6
  51.0000         9
  51.0500         9
  51.1000         4
  51.1500         4
  51.2000        11
  51.2500         7
  51.3000         1
  51.3500        10
  51.4000         2
  51.4500         6
  51.5000         7
  51.5500         4
  51.6000         9
  51.6500         6
  51.7000         7
  51.7500         5
  51.8000         4
  51.8500         8
  51.9000         4
  51.9500        10
  52.0000        14
  52.0500        14
  52.1000        16
  52.1500        24
  52.2000        49
  52.2500       102
  52.3000       170
  52.3500       160
  52.4000       153
  52.4500       144
  52.5000        83
  52.5500        44
  52.6000        27
  52.6500        19
  52.7000         4
  52.7500        11
  52.8000        10
  52.8500         7
  52.9000        14
  52.9500         5
  53.0000         6
  53.0500         6
  53.1000         3
  53.1500         7
  53.2000         7
  53.2500         6
  53.3000         5
  53.3500        17
  53.4000         6
  53.4500         3
  53.5000         7
  53.5500        15
  53.6000         8
  53.6500         6
  53.7000         6
  53.7500         5
  53.8000         8
  53.8500         7
  53.9000         7
  53.9500         6
  54.0000         5
  54.0500         8
  54.1000         7
  54.1500         8
  54.2000         4
  54.2500        10
  54.3000         9
  54.3500         9
  54.4000         6
  54.4500         4
  54.5000         6
  54.5500         5
  54.6000         5
  54.6500         6
  54.7000         5
  54.7500         9
  54.8000         6
  54.8500         3
  54.9000         2
  54.9500         6
  55.0000         5
  55.0500         9
  55.1000        11
  55.1500         5
  55.2000         6
  55.2500         5
  55.3000         7
  55.3500         3
  55.4000         6
  55.4500         8
  55.5000         9
  55.5500        10
  55.6000         6
  55.6500         0
  55.7000         6
  55.7500         5
  55.8000         7
  55.8500         6
  55.9000         4
  55.9500         8
  56.0000         6
  56.0500         6
  56.1000         5
  56.1500         2
  56.2000         9
  56.2500         7
  56.3000         3
  56.3500         1
  56.4000         6
  56.4500         6
  56.5000         5
  56.5500         4
  56.6000         5
  56.6500         8
  56.7000         4
  56.7500         3
  56.8000         3
  56.8500         2
  56.9000         6
  56.9500         5
  57.0000         4
  57.0500         4
  57.1000         5
  57.1500         3
  57.2000         6
  57.2500         7
  57.3000         5
  57.3500         4
  57.4000         7
  57.4500         2
  57.5000         4
  57.5500         8
  57.6000         3
  57.6500         6
  57.7000         2
  57.7500         8
  57.8000         8
  57.8500         3
  57.9000         6
  57.9500         6
  58.0000         4
  58.0500         5
  58.1000         7
  58.1500         2
  58.2000         3
  58.2500         6
  58.3000         3
  58.3500         7
  58.4000         6
  58.4500         5
  58.5000        13
  58.5500         8
  58.6000         4
  58.6500         5
  58.7000         9
  58.7500         5
  58.8000         6
  58.8500         9
  58.9000         9
  58.9500         2
  59.0000         7
  59.0500         6
  59.1000         7
  59.1500         4
  59.2000         9
  59.2500        10
  59.3000         6
  59.3500         9
  59.4000         7
  59.4500         2
  59.5000         7
  59.5500         5
  59.6000         7
  59.6500         6
  59.7000         6
  59.7500        10
  59.8000         9
  59.8500         3
  59.9000         7
  59.9500         6
  60.0000         4
  60.0500         5
  60.1000        10
  60.1500        10
  60.2000         8
  60.2500         2
  60.3000         4
  60.3500        17
  60.4000        11
  60.4500         7
  60.5000         3
  60.5500         5
  60.6000        10
  60.6500         8
  60.7000         6
  60.7500         8
  60.8000         6
  60.8500         6
  60.9000         6
  60.9500        10
  61.0000        13
  61.0500        11
  61.1000         6
  61.1500         5
  61.2000         9
  61.2500         8
  61.3000         6
  61.3500        13
  61.4000         4
  61.4500         4
  61.5000         9
  61.5500         4
  61.6000        10
  61.6500        12
  61.7000        11
  61.7500         9
  61.8000        14
  61.8500        17
  61.9000        18
  61.9500        16
  62.0000        17
  62.0500        28
  62.1000        42
  62.1500        96
  62.2000       209
  62.2500       206
  62.3000       182
  62.3500       159
  62.4000       138
  62.4500       104
  62.5000        58
  62.5500        35
  62.6000        24
  62.6500        20
  62.7000        21
  62.7500         9
  62.8000        15
  62.8500         7
  62.9000         7
  62.9500         8
  63.0000        10
  63.0500         7
  63.1000         6
  63.1500         4
  63.2000         4
  63.2500         9
  63.3000         9
  63.3500        12
  63.4000        11
  63.4500         4
  63.5000         6
  63.5500         9
  63.6000         4
  63.6500         8
  63.7000         4
  63.7500        10
  63.8000         6
  63.8500         8
  63.9000         7
  63.9500        12
  64.0000         7
  64.0500         7
  64.1000         7
  64.1500         6
  64.2000        10
  64.2500         3
  64.3000         7
  64.3500         6
  64.4000         5
  64.4500         5
  64.5000         2
  64.5500         6
  64.6000         6
  64.6500         6
  64.7000         4
  64.7500         6
  64.8000         6
  64.8500        13
  64.9000         1
  64.9500         8
  65.0000         8
  65.0500         9
  65.1000        10
  65.1500        16
  65.2000        15
  65.2500        35
  65.3000        86
  65.3500        69
  65.4000        47
  65.4500        54
  65.5000        51
  65.5500        30
  65.6000        27
  65.6500        11
  65.7000         7
  65.7500         6
  65.8000         8
  65.8500         5
  65.9000         4
  65.9500         7
  66.0000         5
  66.0500         2
  66.1000         9
  66.1500         8
  66.2000         2
  66.2500         7
  66.3000         5
  66.3500         3
  66.4000         2
  66.4500         5
  66.5000         4
  66.5500         2
  66.6000         6
  66.6500         7
  66.7000         3
  66.7500         3
  66.8000         4
  66.8500         1
  66.9000         5
  66.9500         3
  67.0000         4
  67.0500         8
  67.1000         6
  67.1500         9
  67.2000         7
  67.2500        10
  67.3000         5
  67.3500         4
  67.4000         2
  67.4500         4
  67.5000         4
  67.5500         3
  67.6000         3
  67.6500         8
  67.7000         4
  67.7500         4
  67.8000         5
  67.8500         4
  67.9000         3
  67.9500         6
  68.0000         5
  68.0500         5
  68.1000         6
  68.1500         7
  68.2000         8
  68.2500         2
  68.3000         4
  68.3500         3
  68.4000         5
  68.4500         3
  68.5000         3
  68.5500         5
  68.6000         7
  68.6500         6
  68.7000         3
  68.7500         5
  68.8000         4
  68.8500         7
  68.9000         5
  68.9500         6
  69.0000         7
  69.0500         3
  69.1000         3
  69.1500         3
  69.2000         6
  69.2500         6
  69.3000         2
  69.3500         4
  69.4000         6
  69.4500         7
  69.5000         4
  69.5500         7
  69.6000         2
  69.6500         7
  69.7000         7
  69.7500         1
  69.8000         4
  69.8500         3
  69.9000         4
  69.9500         6
  70.0000         7
  70.0500         6
  70.1000         7
  70.1500         3
  70.2000         4
  70.2500         4
  70.3000         5
  70.3500         3
  70.4000         4
  70.4500         3
  70.5000         3
  70.5500         6
  70.6000         4
  70.6500         3
  70.7000         4
  70.7500         7
  70.8000         3
  70.8500         5
  70.9000         2
  70.9500         1
  71.0000         3
  71.0500         5
  71.1000         2
  71.1500         2
  71.2000         1
  71.2500         3
  71.3000         4
  71.3500         5
  71.4000         6
  71.4500         5
  71.5000         3
  71.5500         3
  71.6000         1
  71.6500         4
  71.7000         3
  71.7500         4
  71.8000         4
  71.8500         4
  71.9000         4
  71.9500         1
  72.0000         2
  72.0500         2
  72.1000         1
  72.1500         6
  72.2000         3
  72.2500         4
  72.3000         3
  72.3500         4
  72.4000         2
  72.4500         0
  72.5000         3
  72.5500         6
  72.6000         0
  72.6500         2
  72.7000         2
  72.7500         4
  72.8000         0
  72.8500         2
  72.9000         5
  72.9500         3
  73.0000         5
  73.0500         4
  73.1000         6
  73.1500         7
  73.2000         7
  73.2500         8
  73.3000         3
  73.3500         5
  73.4000         6
  73.4500         5
  73.5000         3
  73.5500         8
  73.6000         6
  73.6500         4
  73.7000         0
  73.7500         4
  73.8000         6
  73.8500         2
  73.9000         6
  73.9500         3
  74.0000         4
  74.0500         7
  74.1000         1
  74.1500         2
  74.2000         0
  74.2500         8
  74.3000         2
  74.3500         3
  74.4000         6
  74.4500         4
  74.5000         5
  74.5500         3
  74.6000         2
  74.6500         3
  74.7000         3
  74.7500         7
  74.8000         8
  74.8500         4
  74.9000         5
  74.9500         3
  75.0000         6
  75.0500         2
  75.1000         3
  75.1500         6
  75.2000         2
  75.2500         4
  75.3000         3
  75.3500         6
  75.4000         2
  75.4500         6
  75.5000         3
  75.5500         1
  75.6000         7
  75.6500         5
  75.7000         9
  75.7500         4
  75.8000         5
  75.8500         3
  75.9000         7
  75.9500         1
  76.0000         2
  76.0500         3
  76.1000         4
  76.1500         4
  76.2000         5
  76.2500         0
  76.3000         6
  76.3500         3
  76.4000         1
  76.4500         6
  76.5000         3
  76.5500         3
  76.6000         5
  76.6500         2
  76.7000        12
  76.7500         6
  76.8000         2
  76.8500         6
  76.9000        10
  76.9500        12
  77.0000        14
  77.0500        29
  77.1000        25
  77.1500        17
  77.2000        10
  77.2500        15
  77.3000        17
  77.3500        12
  77.4000         8
  77.4500         6
  77.5000         6
  77.5500         2
  77.6000         4
  77.6500         6
  77.7000         5
  77.7500         8
  77.8000         8
  77.8500         4
  77.9000         4
  77.9500         7
  78.0000         3
  78.0500         4
  78.1000         4
  78.1500         3
  78.2000         1
  78.2500         3
  78.3000         7
  78.3500         0
  78.4000         6
  78.4500         9
  78.5000         4
  78.5500         2
  78.6000         3
  78.6500         7
  78.7000         5
  78.7500         4
  78.8000         5
  78.8500         4
  78.9000         3
  78.9500         5
  79.0000         4
  79.0500         2
  79.1000         6
  79.1500         4
  79.2000         3
  79.2500         4
  79.3000         2
  79.3500         3
  79.4000         2
  79.4500         1
  79.5000         1
  79.5500         3
  79.6000         7
  79.6500         6
  79.7000         6
  79.7500         4
  79.8000         6
  79.8500         3
  79.9000         1
  79.9500         6
  80.0000         3
  80.0500         3
  80.1000         5
  80.1500         5
  80.2000         4
  80.2500         7
  80.3000         3
  80.3500         3
  80.4000         0
  80.4500         4
  80.5000         4
  80.5500         4
  80.6000         4
  80.6500         3
  80.7000         7
  80.7500         1
  80.8000         4
  80.8500         3
  80.9000         2
  80.9500         5
  81.0000         5
  81.0500         2
  81.1000         3
  81.1500         7
  81.2000         3
  81.2500         5
  81.3000         4
  81.3500         4
  81.4000         4
  81.4500         4
  81.5000         3
  81.5500         7
  81.6000         4
  81.6500         1
  81.7000         5
  81.7500         4
  81.8000         1
  81.8500         2
  81.9000         5
  81.9500         1
  82.0000         3
  82.0500         4
  82.1000         9
  82.1500         5
  82.2000         5
  82.2500         8
  82.3000         3
  82.3500         8
  82.4000         6
  82.4500         4
  82.5000         3
  82.5500         1
  82.6000         5
  82.6500         4
  82.7000         1
  82.7500         2
  82.8000         3
  82.8500         6
  82.9000         6
  82.9500         5
  83.0000         8
  83.0500         9
  83.1000         2
  83.1500         3
  83.2000         5
  83.2500         4
  83.3000         2
  83.3500         2
  83.4000         4
  83.4500         3
  83.5000         2
  83.5500         6
  83.6000         5
  83.6500         3
  83.7000         4
  83.7500         6
  83.8000         8
  83.8500         1
  83.9000         3
  83.9500         2
  84.0000         4
  84.0500         3
  84.1000         8
  84.1500         5
  84.2000         6
  84.2500         6
  84.3000         6
  84.3500         7
  84.4000         5
  84.4500         4
  84.5000         2
  84.5500         7
  84.6000         6
  84.6500         5
  84.7000         5
  84.7500         3
  84.8000         9
  84.8500         6
  84.9000         9
  84.9500         3
  85.0000         1
  85.0500         6
  85.1000        10
  85.1500         9
  85.2000        10
  85.2500        10
  85.3000        11
  85.3500        13
  85.4000        20
  85.4500        40
  85.5000        72
  85.5500        44
  85.6000        49
  85.6500        28
  85.7000        23
  85.7500        27
  85.8000        28
  85.8500        17
  85.9000        17
  85.9500         6
  86.0000        10
  86.0500         4
  86.1000         4
  86.1500         8
  86.2000         5
  86.2500         6
  86.3000         4
  86.3500         5
  86.4000         3
  86.4500         5
  86.5000         6
  86.5500         1
  86.6000         2
  86.6500         2
  86.7000         6
  86.7500         4
  86.8000         4
  86.8500         4
  86.9000         5
  86.9500         2
  87.0000         5
  87.0500         5
  87.1000         4
  87.1500         5
  87.2000         4
  87.2500         4
  87.3000         4
  87.3500         6
  87.4000         7
  87.4500         8
  87.5000         3
  87.5500         9
  87.6000         4
  87.6500         7
  87.7000         6
  87.7500         8
  87.8000         8
  87.8500         9
  87.9000        10
  87.9500         9
  88.0000        12
  88.0500        13
  88.1000        17
  88.1500        21
  88.2000        36
  88.2500        66
  88.3000        70
  88.3500        41
  88.4000        28
  88.4500        26
  88.5000        23
  88.5500        42
  88.6000        31
  88.6500        12
  88.7000        11
  88.7500         9
  88.8000         5
  88.8500         9
  88.9000         9
  88.9500         2
  89.0000         4
  89.0500         5
  89.1000         3
  89.1500         6
  89.2000         0
  89.2500         4
  89.3000         5
  89.3500         4
  89.4000         6
  89.4500         8
  89.5000         3
  89.5500         3
  89.6000         5
  89.6500         6
  89.7000         4
  89.7500         4
  89.8000         2
  89.8500         6
  89.9000         5
  89.9500         5
  90.0000         3
  90.0500         5
  90.1000         5
  90.1500         5
  90.2000         3
  90.2500         4
  90.3000         5
  90.3500         5
  90.4000         5
  90.4500         6
  90.5000         8
  90.5500         3
  90.6000        12
  90.6500         2
  90.7000         4
  90.7500         3
  90.8000         6
  90.8500         3
  90.9000         4
  90.9500         4
  91.0000         7
  91.0500         4
  91.1000         3
  91.1500         7
  91.2000         5
  91.2500         4
  91.3000         2
  91.3500         4
  91.4000         3
  91.4500         3
  91.5000         5
  91.5500         5
  91.6000         5
  91.6500         3
  91.7000         2
  91.7500         2
  91.8000         4
  91.8500         3
  91.9000         2
  91.9500         3
  92.0000         3
  92.0500         8
  92.1000         6
  92.1500         5
  92.2000         8
  92.2500         7
  92.3000         5
  92.3500         5
  92.4000         8
  92.4500         8
  92.5000         4
  92.5500         4
  92.6000         3
  92.6500         7
  92.7000         3
  92.7500         7
  92.8000         2
  92.8500         5
  92.9000         6
  92.9500         2
  93.0000         3
  93.0500         5
  93.1000         5
  93.1500         6
  93.2000         4
  93.2500         3
  93.3000         0
  93.3500         3
  93.4000         2
  93.4500         5
  93.5000         3
  93.5500         1
  93.6000         7
  93.6500         7
  93.7000         5
  93.7500         4
  93.8000        10
  93.8500         1
  93.9000         5
  93.9500         4
  94.0000         1
  94.0500         2
  94.1000         5
  94.1500         3
  94.2000         4
  94.2500         5
  94.3000         5
  94.3500         4
  94.4000         4
  94.4500         8
  94.5000         3
  94.5500         5
  94.6000         6
  94.6500         2
  94.7000         1
  94.7500         4
  94.8000         3
  94.8500         6
  94.9000         4
  94.9500         3
  95.0000         3
  95.0500         7
  95.1000         3
  95.1500         8
  95.2000         4
  95.2500         2
  95.3000         9
  95.3500         3
  95.4000         6
  95.4500         6
  95.5000         4
  95.5500         6
  95.6000         2
  95.6500         3
  95.7000         4
  95.7500         5
  95.8000         4
  95.8500         8
  95.9000         3
  95.9500         3
  96.0000         6
  96.0500         4
  96.1000         3
  96.1500         5
  96.2000         9
  96.2500         1
  96.3000         4
  96.3500         2
  96.4000         2
  96.4500         5
  96.5000         7
  96.5500         2
  96.6000         4
  96.6500         9
  96.7000         1
  96.7500         3
  96.8000         3
  96.8500         2
  96.9000         1
  96.9500         2
  97.0000         8
  97.0500         5
  97.1000         7
  97.1500         3
  97.2000         4
  97.2500         4
  97.3000         2
  97.3500         7
  97.4000         7
  97.4500         6
  97.5000         6
  97.5500         5
  97.6000         6
  97.6500         2
  97.7000         3
  97.7500         8
  97.8000         5
  97.8500         3
  97.9000         4
  97.9500         9
  98.0000         6
  98.0500         2
  98.1000         6
  98.1500         6
  98.2000         6
  98.2500         5
  98.3000         2
  98.3500         2
  98.4000         4
  98.4500         7
  98.5000         3
  98.5500         4
  98.6000         8
  98.6500         7
  98.7000         6
  98.7500         4
  98.8000        12
  98.8500         7
  98.9000         5
  98.9500         1
  99.0000         5
  99.0500         4
  99.1000         8
  99.1500         9
  99.2000         7
  99.2500         8
  99.3000        18
  99.3500        18
  99.4000        52
  99.4500        26
  99.5000        33
  99.5500        21
  99.6000        26
  99.6500        15
  99.7000        18
  99.7500        20
  99.8000        16
  99.8500        15
  99.9000        14
  99.9500        12
 100.0000         5
 100.0500         6
 100.1000        10
 100.1500         6
 100.2000         8
 100.2500         3
 100.3000        10
 100.3500         8
 100.4000         3
 100.4500        10
 100.5000         6
 100.5500         5
 100.6000         2
 100.6500         5
 100.7000         2
 100.7500         2
 100.8000         5
 100.8500         5
 100.9000         2
 100.9500         4
 101.0000         5
 101.0500         5
 101.1000         5
 101.1500         2
 101.2000         2
 101.2500         3
 101.3000         4
 101.3500         7
 101.4000         5
 101.4500         4
 101.5000         7
 101.5500         6
 101.6000         6
 101.6500         4
 101.7000         4
 101.7500         3
 101.8000         5
 101.8500         4
 101.9000         6
 101.9500         4
 102.0000         8
 102.0500         5
 102.1000         3
 102.1500         5
 102.2000         3
 102.2500         5
 102.3000         2
 102.3500         4
 102.4000         5
 102.4500         6
 102.5000         7
 102.5500         2
 102.6000         8
 102.6500         5
 102.7000         7
 102.7500         1
 102.8000         3
 102.8500         4
 102.9000         5
 102.9500         3
 103.0000         2
 103.0500         4
 103.1000         3
 103.1500         5
 103.2000         8
 103.2500         6
 103.3000         0
 103.3500         9
 103.4000         2
 103.4500         3
 103.5000         2
 103.5500         3
 103.6000        10
 103.6500         4
 103.7000         2
 103.7500         5
 103.8000         8
 103.8500         5
 103.9000         7
 103.9500         5
 104.0000        12
 104.0500         5
 104.1000         6
 104.1500         5
 104.2000         5
 104.2500         2
 104.3000        10
 104.3500         4
 104.4000         6
 104.4500         3
 104.5000         5
 104.5500         5
 104.6000         7
 104.6500         4
 104.7000         3
 104.7500         8
 104.8000         3
 104.8500         5
 104.9000         1
 104.9500         4
 105.0000         3
 105.0500         6
 105.1000         5
 105.1500         6
 105.2000         3
 105.2500         3
 105.3000         5
 105.3500         4
 105.4000         7
 105.4500         7
 105.5000         2
 105.5500         6
 105.6000         4
 105.6500         2
 105.7000         7
 105.7500         4
 105.8000         4
 105.8500         4
 105.9000         5
 105.9500         5
 106.0000         5
 106.0500         5
 106.1000         4
 106.1500         5
 106.2000         5
 106.2500         2
 106.3000         5
 106.3500         6
 106.4000         8
 106.4500         1
 106.5000         2
 106.5500         4
 106.6000        10
 106.6500         6
 106.7000         7
 106.7500         5
 106.8000         5
 106.8500         4
 106.9000         2
 106.9500         5
 107.0000         7
 107.0500         2
 107.1000         4
 107.1500         4
 107.2000         7
 107.2500         8
 107.3000         4
 107.3500         7
 107.4000         6
 107.4500         3
 107.5000         6
 107.5500         6
 107.6000         3
 107.6500         7
 107.7000        12
 107.7500         4
 107.8000        11
 107.8500        18
 107.9000        29
 107.9500        22
 108.0000        52
 108.0500        41
 108.1000        25
 108.1500        16
 108.2000        15
 108.2500        14
 108.3000        21
 108.3500        22
 108.4000        22
 108.4500        20
 108.5000        11
 108.5500        10
 108.6000        14
 108.6500         7
 108.7000         5
 108.7500         4
 108.8000         7
 108.8500         3
 108.9000         4
 108.9500         7
 109.0000         8
 109.0500         6
 109.1000         6
 109.1500         5
 109.2000         5
 109.2500         2
 109.3000         5
 109.3500         5
 109.4000         8
 109.4500         6
 109.5000         4
 109.5500         5
 109.6000         6
 109.6500         7
 109.7000         2
 109.7500         8
 109.8000         1
 109.8500         2
 109.9000        10
 109.9500         5
 110.0000         3
