  10.0000         6
  10.0500         2
  10.1000         6
  10.1500         3
  10.2000         5
  10.2500         8
  10.3000         4
  10.3500         4
  10.4000         5
  10.4500         4
  10.5000         5
  10.5500         2
  10.6000         1
  10.6500         3
  10.7000         4
  10.7500         6
  10.8000         1
  10.8500         2
  10.9000         1
  10.9500         6
  11.0000         4
  11.0500         3
  11.1000         3
  11.1500         4
  11.2000         6
  11.2500         3
  11.3000         1
  11.3500         3
  11.4000         7
  11.4500         5
  11.5000         3
  11.5500         3
  11.6000         4
  11.6500         7
  11.7000         4
  11.7500         3
  11.8000         5
  11.8500         2
  11.9000         1
  11.9500         3
  12.0000         1
  12.0500         1
  12.1000         4
  12.1500         1
  12.2000         2
  12.2500         3
  12.3000         1
  12.3500         2
  12.4000         3
  12.4500         3
  12.5000         5
  12.5500         3
  12.6000         1
  12.6500         2
  12.7000         4
  12.7500         2
  12.8000         7
  12.8500         4
  12.9000         4
  12.9500         2
  13.0000         2
  13.0500         3
  13.1000         4
  13.1500         0
  13.2000         2
  13.2500         2
  13.3000         6
  13.3500         4
  13.4000         3
  13.4500         5
  13.5000         5
  13.5500         0
  13.6000         5
  13.6500         1
  13.7000         3
  13.7500         2
  13.8000         4
  13.8500         5
  13.9000         2
  13.9500         4
  14.0000         3
  14.0500         3
  14.1000         3
  14.1500         5
  14.2000         2
  14.2500         3
  14.3000         3
  14.3500         3
  14.4000        11
  14.4500         4
  14.5000         1
  14.5500         3
  14.6000         1
  14.6500         0
  14.7000         3
  14.7500         3
  14.8000         2
  14.8500         6
  14.9000         2
  14.9500         4
  15.0000         3
  15.0500         6
  15.1000         1
  15.1500         2
  15.2000         6
  15.2500         2
  15.3000         1
  15.3500         4
  15.4000         2
  15.4500         3
  15.5000         7
  15.5500         2
  15.6000         4
  15.6500         3
  15.7000         1
  15.7500         0
  15.8000         5
  15.8500         3
  15.9000         3
  15.9500         0
  16.0000         2
  16.0500         6
  16.1000         1
  16.1500         1
  16.2000         3
  16.2500         6
  16.3000         0
  16.3500         2
  16.4000         0
  16.4500         1
  16.5000         1
  16.5500         2
  16.6000         0
  16.6500         2
  16.7000         2
  16.7500         4
  16.8000         2
  16.8500         1
  16.9000         1
  16.9500         2
  17.0000         2
  17.0500         3
  17.1000         2
  17.1500         2
  17.2000         4
  17.2500         0
  17.3000         6
  17.3500         3
  17.4000         2
  17.4500         3
  17.5000         1
  17.5500         4
  17.6000         1
  17.6500         0
  17.7000         1
  17.7500         3
  17.8000         1
  17.8500         1
  17.9000         2
  17.9500         7
  18.0000         1
  18.0500         4
  18.1000         2
  18.1500         3
  18.2000         3
  18.2500         0
  18.3000         3
  18.3500         2
  18.4000         2
  18.4500         2
  18.5000         1
  18.5500         5
  18.6000         8
  18.6500         2
  18.7000         2
  18.7500         1
  18.8000         5
  18.8500         2
  18.9000         4
  18.9500         3
  19.0000         3
  19.0500         1
  19.1000         3
  19.1500         2
  19.2000         1
  19.2500         3
  19.3000         2
  19.3500         1
  19.4000         0
  19.4500         1
  19.5000         1
  19.5500         2
  19.6000         2
  19.6500         3
  19.7000         4
  19.7500         4
  19.8000         5
  19.8500         5
  19.9000         3
  19.9500         3
  20.0000         5
  20.0500         0
  20.1000         3
  20.1500         5
  20.2000         1
  20.2500         2
  20.3000         2
  20.3500         3
  20.4000         2
  20.4500         1
  20.5000         0
  20.5500         2
  20.6000         3
  20.6500         3
  20.7000         2
  20.7500         1
  20.8000         1
  20.8500         3
  20.9000         4
  20.9500         1
  21.0000         2
  21.0500         0
  21.1000         2
  21.1500         5
  21.2000         2
  21.2500         1
  21.3000         3
  21.3500         3
  21.4000         1
  21.4500         4
  21.5000         2
  21.5500         1
  21.6000         3
  21.6500         2
  21.7000         1
  21.7500         3
  21.8000         1
  21.8500         0
  21.9000         1
  21.9500         2
  22.0000         2
  22.0500         5
  22.1000         3
  22.1500         1
  22.2000         2
  22.2500         0
  22.3000         6
  22.3500         5
  22.4000         4
  22.4500         3
  22.5000         0
  22.5500         6
  22.6000         0
  22.6500         5
  22.7000         2
  22.7500         4
  22.8000         3
  22.8500         1
  22.9000         2
  22.9500         2
  23.0000         9
  23.0500         6
  23.1000         3
  23.1500         0
  23.2000         4
  23.2500         5
  23.3000         3
  23.3500         1
  23.4000         6
  23.4500         5
  23.5000         0
  23.5500         7
  23.6000         2
  23.6500         3
  23.7000         2
  23.7500         3
  23.8000         2
  23.8500         2
  23.9000         3
  23.9500         5
  24.0000         2
  24.0500         5
  24.1000         2
  24.1500         2
  24.2000         5
  24.2500         3
  24.3000         4
  24.3500         1
  24.4000         1
  24.4500         7
  24.5000         4
  24.5500         3
  24.6000         2
  24.6500         2
  24.7000         3
  24.7500         4
  24.8000         1
  24.8500         5
  24.9000         4
  24.9500         5
  25.0000         5
  25.0500         1
  25.1000         9
  25.1500         7
  25.2000         7
  25.2500         6
  25.3000         1
  25.3500         2
  25.4000         3
  25.4500         0
  25.5000         8
  25.5500         1
  25.6000         7
  25.6500         3
  25.7000         3
  25.7500         5
  25.8000         3
  25.8500         3
  25.9000         5
  25.9500         3
  26.0000         5
  26.0500         2
  26.1000         3
  26.1500         1
  26.2000         3
  26.2500         6
  26.3000         2
  26.3500         4
  26.4000         0
  26.4500         3
  26.5000         6
  26.5500         5
  26.6000         0
  26.6500         3
  26.7000         3
  26.7500         2
  26.8000         9
  26.8500         7
  26.9000         2
  26.9500         2
  27.0000         7
  27.0500         2
  27.1000         5
  27.1500         4
  27.2000         1
  27.2500         2
  27.3000         3
  27.3500         4
  27.4000         4
  27.4500         8
  27.5000         4
  27.5500         4
  27.6000         6
  27.6500         5
  27.7000         0
  27.7500         5
  27.8000         2
  27.8500         4
  27.9000         5
  27.9500         6
  28.0000         6
  28.0500         2
  28.1000         1
  28.1500         2
  28.2000         3
  28.2500         3
  28.3000         1
  28.3500         4
  28.4000         2
  28.4500         0
  28.5000         3
  28.5500         4
  28.6000         7
  28.6500         3
  28.7000         5
  28.7500         2
  28.8000         5
  28.8500         6
  28.9000         6
  28.9500         1
  29.0000         2
  29.0500         4
  29.1000         6
  29.1500         2
  29.2000         4
  29.2500         8
  29.3000         5
  29.3500         5
  29.4000         4
  29.4500         6
  29.5000         5
  29.5500         6
  29.6000        11
  29.6500         7
  29.7000         4
  29.7500         5
  29.8000         7
  29.8500         2
  29.9000         6
  29.9500         8
  30.0000         8
  30.0500         3
  30.1000         5
  30.1500         6
  30.2000         4
  30.2500         6
  30.3000         9
  30.3500        10
  30.4000         5
  30.4500         6
  30.5000         6
  30.5500         6
  30.6000         9
  30.6500         6
  30.7000        14
  30.7500        22
  30.8000         7
  30.8500         9
  30.9000        13
  30.9500        11
  31.0000        18
  31.0500         9
  31.1000        21
  31.1500        23
  31.2000        32
  31.2500        51
  31.3000       143
  31.3500       291
  31.4000       522
  31.4500       738
  31.5000       542
  31.5500       351
  31.6000       170
  31.6500        49
  31.7000        27
  31.7500        19
  31.8000        21
  31.8500         9
  31.9000        11
  31.9500         7
  32.0000        14
  32.0500        26
  32.1000        30
  32.1500        51
  32.2000        54
  32.2500        41
  32.3000        20
  32.3500        13
  32.4000        12
  32.4500         8
  32.5000        10
  32.5500         6
  32.6000         5
  32.6500         6
  32.7000         7
  32.7500         6
  32.8000         6
  32.8500         6
  32.9000         6
  32.9500         2
  33.0000         7
  33.0500         8
  33.1000         6
  33.1500         2
  33.2000         8
  33.2500         2
  33.3000         3
  33.3500         7
  33.4000         4
  33.4500         5
  33.5000         2
  33.5500         3
  33.6000         2
  33.6500         2
  33.7000         5
  33.7500         8
  33.8000         3
  33.8500        10
  33.9000         4
  33.9500         3
  34.0000         4
  34.0500         6
  34.1000         3
  34.1500         6
  34.2000         5
  34.2500         5
  34.3000         6
  34.3500         3
  34.4000         5
  34.4500         5
  34.5000         8
  34.5500         2
  34.6000         9
  34.6500         3
  34.7000         9
  34.7500         6
  34.8000         1
  34.8500         0
  34.9000         3
  34.9500         5
  35.0000         8
  35.0500         7
  35.1000         4
  35.1500         7
  35.2000         6
  35.2500         9
  35.3000         5
  35.3500         5
  35.4000         5
  35.4500         7
  35.5000         6
  35.5500        10
  35.6000        10
  35.6500         2
  35.7000         8
  35.7500         7
  35.8000        10
  35.8500        12
  35.9000         5
  35.9500         6
  36.0000         5
  36.0500         7
  36.1000        15
  36.1500        15
  36.2000        37
  36.2500        60
  36.3000        99
  36.3500       153
  36.4000       331
  36.4500       393
  36.5000       290
  36.5500       212
  36.6000       100
  36.6500        42
  36.7000        17
  36.7500        14
  36.8000        10
  36.8500         8
  36.9000        10
  36.9500         8
  37.0000         6
  37.0500         7
  37.1000         6
  37.1500         3
  37.2000         5
  37.2500         6
  37.3000         4
  37.3500         6
  37.4000         7
  37.4500         0
  37.5000         4
  37.5500         5
  37.6000         2
  37.6500         7
  37.7000         4
  37.7500         2
  37.8000         3
  37.8500         4
  37.9000         5
  37.9500         5
  38.0000         4
  38.0500         5
  38.1000         1
  38.1500         3
  38.2000         2
  38.2500         2
  38.3000         2
  38.3500         4
  38.4000         2
  38.4500         0
  38.5000         6
  38.5500         4
  38.6000         8
  38.6500         4
  38.7000         5
  38.7500         5
  38.8000         3
  38.8500         0
  38.9000         4
  38.9500         1
  39.0000         3
  39.0500         4
  39.1000         3
  39.1500         1
  39.2000         4
  39.2500         4
  39.3000         5
  39.3500         8
  39.4000         2
  39.4500         2
  39.5000         5
  39.5500         2
  39.6000         1
  39.6500         7
  39.7000         2
  39.7500         3
  39.8000         6
  39.8500         3
  39.9000         4
  39.9500         4
  40.0000         5
  40.0500         3
  40.1000         6
  40.1500         2
  40.2000         2
  40.2500         1
  40.3000         4
  40.3500         1
  40.4000         3
  40.4500         1
  40.5000         2
  40.5500         4
  40.6000         2
  40.6500         3
  40.7000         2
  40.7500         3
  40.8000         1
  40.8500         5
  40.9000         2
  40.9500         5
  41.0000         3
  41.0500         6
  41.1000         8
  41.1500         8
  41.2000         2
  41.2500         1
  41.3000         4
  41.3500         4
  41.4000         6
  41.4500         2
  41.5000         5
  41.5500         4
  41.6000         3
  41.6500         4
  41.7000         2
  41.7500         3
  41.8000         2
  41.8500         6
  41.9000         6
  41.9500         4
  42.0000         3
  42.0500         4
  42.1000         5
  42.1500         6
  42.2000         3
  42.2500         3
  42.3000         8
  42.3500         4
  42.4000         3
  42.4500         4
  42.5000         1
  42.5500         0
  42.6000         0
  42.6500         5
  42.7000         1
  42.7500         1
  42.8000         8
  42.8500         3
  42.9000         3
  42.9500         3
  43.0000         2
  43.0500         4
  43.1000         3
  43.1500         4
  43.2000         3
  43.2500         5
  43.3000         4
  43.3500         5
  43.4000         6
  43.4500         2
  43.5000         4
  43.5500         3
  43.6000         5
  43.6500         5
  43.7000         2
  43.7500         2
  43.8000         3
  43.8500         6
  43.9000         6
  43.9500         8
  44.0000         9
  44.0500        17
  44.1000         6
  44.1500         2
  44.2000         3
  44.2500         5
  44.3000         4
  44.3500         3
  44.4000         2
  44.4500         2
  44.5000         2
  44.5500         7
  44.6000         2
  44.6500         1
  44.7000         7
  44.7500         1
  44.8000         0
  44.8500         5
  44.9000         6
  44.9500         7
  45.0000        13
  45.0500        32
  45.1000        21
  45.1500        19
  45.2000         9
  45.2500        11
  45.3000         4
  45.3500         4
  45.4000         1
  45.4500         1
  45.5000         4
  45.5500         6
  45.6000         5
  45.6500         2
  45.7000         1
  45.7500         2
  45.8000         4
  45.8500         5
  45.9000         1
  45.9500         2
  46.0000         2
  46.0500         3
  46.1000         1
  46.1500         0
  46.2000         4
  46.2500         3
  46.3000         1
  46.3500         5
  46.4000         4
  46.4500         4
  46.5000         2
  46.5500         6
  46.6000         2
  46.6500         5
  46.7000         2
  46.7500         1
  46.8000         4
  46.8500         5
  46.9000         2
  46.9500         2
  47.0000         2
  47.0500         3
  47.1000         1
  47.1500         6
  47.2000         3
  47.2500         1
  47.3000         2
  47.3500         1
  47.4000         2
  47.4500         3
  47.5000         3
  47.5500         4
  47.6000         3
  47.6500         5
  47.7000         3
  47.7500         3
  47.8000         4
  47.8500         4
  47.9000         4
  47.9500         2
  48.0000         2
  48.0500         6
  48.1000         3
  48.1500         3
  48.2000         3
  48.2500         4
  48.3000         5
  48.3500         4
  48.4000         3
  48.4500         3
  48.5000         5
  48.5500         2
  48.6000         5
  48.6500         4
  48.7000         5
  48.7500         3
  48.8000         3
  48.8500         3
  48.9000         4
  48.9500         2
  49.0000         4
  49.0500         2
  49.1000         3
  49.1500         6
  49.2000         0
  49.2500         3
  49.3000         3
  49.3500         4
  49.4000         7
  49.4500         4
  49.5000         5
  49.5500         7
  49.6000         3
  49.6500         1
  49.7000         5
  49.7500         5
  49.8000         3
  49.8500         2
  49.9000         0
  49.9500         6
  50.0000         2
  50.0500         2
  50.1000         1
  50.1500         2
  50.2000         2
  50.2500         3
  50.3000         2
  50.3500         4
  50.4000         2
  50.4500         6
  50.5000         6
  50.5500         1
  50.6000         3
  50.6500         5
  50.7000         4
  50.7500         5
  50.8000         7
  50.8500         3
  50.9000         4
  50.9500         8
  51.0000         6
  51.0500         2
  51.1000         3
  51.1500        10
  51.2000         9
  51.2500         3
  51.3000         8
  51.3500         1
  51.4000         7
  51.4500         7
  51.5000         5
  51.5500         7
  51.6000         6
  51.6500         4
  51.7000         7
  51.7500         7
  51.8000         7
  51.8500         3
  51.9000         6
  51.9500         8
  52.0000        11
  52.0500         9
  52.1000         8
  52.1500        10
  52.2000        16
  52.2500        26
  52.3000        55
  52.3500       124
  52.4000       163
  52.4500       126
  52.5000       106
  52.5500       103
  52.6000        73
  52.6500        40
  52.7000        21
  52.7500         9
  52.8000         9
  52.8500        11
  52.9000         3
  52.9500         2
  53.0000         7
  53.0500         5
  53.1000         6
  53.1500         6
  53.2000         4
  53.2500         7
  53.3000         4
  53.3500         8
  53.4000         7
  53.4500         3
  53.5000         8
  53.5500         5
  53.6000         4
  53.6500         1
  53.7000         2
  53.7500         6
  53.8000         5
  53.8500         5
  53.9000         4
  53.9500         0
  54.0000         4
  54.0500         4
  54.1000         3
  54.1500         8
  54.2000         3
  54.2500         4
  54.3000         1
  54.3500         7
  54.4000         8
  54.4500         2
  54.5000         4
  54.5500         5
  54.6000         6
  54.6500         3
  54.7000         3
  54.7500         2
  54.8000         6
  54.8500         5
  54.9000         6
  54.9500         1
  55.0000         3
  55.0500         6
  55.1000         2
  55.1500         9
  55.2000         4
  55.2500         3
  55.3000         5
  55.3500         7
  55.4000         6
  55.4500        15
  55.5000        22
  55.5500        18
  55.6000         9
  55.6500         8
  55.7000         4
  55.7500         6
  55.8000         4
  55.8500         6
  55.9000         5
  55.9500         3
  56.0000         7
  56.0500         4
  56.1000         5
  56.1500         2
  56.2000         7
  56.2500         2
  56.3000         4
  56.3500         1
  56.4000         5
  56.4500         3
  56.5000         1
  56.5500         5
  56.6000         7
  56.6500         2
  56.7000         2
  56.7500         8
  56.8000         4
  56.8500         7
  56.9000         0
  56.9500         4
  57.0000         5
  57.0500         7
  57.1000         5
  57.1500         6
  57.2000         3
  57.2500         4
  57.3000         8
  57.3500         1
  57.4000         3
  57.4500         3
  57.5000         3
  57.5500         5
  57.6000         2
  57.6500         3
  57.7000         4
  57.7500         8
  57.8000         4
  57.8500         5
  57.9000         6
  57.9500         5
  58.0000         4
  58.0500         3
  58.1000         7
  58.1500        11
  58.2000         6
  58.2500         5
  58.3000         3
  58.3500         6
  58.4000         4
  58.4500         5
  58.5000         3
  58.5500         6
  58.6000         3
  58.6500         5
  58.7000         3
  58.7500         1
  58.8000         3
  58.8500         5
  58.9000         6
  58.9500         8
  59.0000         3
  59.0500         3
  59.1000         1
  59.1500         4
  59.2000         5
  59.2500         2
  59.3000         6
  59.3500         5
  59.4000         5
  59.4500         3
  59.5000         4
  59.5500         8
  59.6000         1
  59.6500         4
  59.7000         7
  59.7500         5
  59.8000         6
  59.8500         4
  59.9000         3
  59.9500         4
  60.0000        10
  60.0500         4
  60.1000         4
  60.1500         1
  60.2000         8
  60.2500         7
  60.3000         5
  60.3500         6
  60.4000         5
  60.4500         6
  60.5000         6
  60.5500         7
  60.6000         8
  60.6500         4
  60.7000         6
  60.7500         7
  60.8000        11
  60.8500         3
  60.9000         5
  60.9500         6
  61.0000         5
  61.0500         7
  61.1000         5
  61.1500         3
  61.2000         4
  61.2500         9
  61.3000        10
  61.3500         7
  61.4000         4
  61.4500         3
  61.5000         3
  61.5500        11
  61.6000         9
  61.6500         9
  61.7000         8
  61.7500        10
  61.8000         9
  61.8500         5
  61.9000        12
  61.9500        10
  62.0000         7
  62.0500        13
  62.1000        18
  62.1500        27
  62.2000        50
  62.2500        69
  62.3000       169
  62.3500       159
  62.4000       126
  62.4500       105
  62.5000       117
  62.5500        67
  62.6000        52
  62.6500        28
  62.7000        23
  62.7500        15
  62.8000        10
  62.8500        16
  62.9000        12
  62.9500        12
  63.0000         8
  63.0500         8
  63.1000         7
  63.1500         6
  63.2000         6
  63.2500         7
  63.3000         6
  63.3500         4
  63.4000         3
  63.4500        10
  63.5000        11
  63.5500         2
  63.6000         3
  63.6500         5
  63.7000         4
  63.7500         5
  63.8000         5
  63.8500         4
  63.9000         7
  63.9500         6
  64.0000         3
  64.0500         6
  64.1000         3
  64.1500        10
  64.2000         7
  64.2500         7
  64.3000         8
  64.3500         2
  64.4000         4
  64.4500         9
  64.5000         2
  64.5500         6
  64.6000         3
  64.6500         5
  64.7000         9
  64.7500         8
  64.8000         5
  64.8500         4
  64.9000        12
  64.9500         5
  65.0000        11
  65.0500         6
  65.1000         8
  65.1500         4
  65.2000         8
  65.2500         8
  65.3000         6
  65.3500        32
  65.4000        45
  65.4500        63
  65.5000        46
  65.5500        28
  65.6000        29
  65.6500        29
  65.7000        17
  65.7500         4
  65.8000         5
  65.8500         9
  65.9000         9
  65.9500         6
  66.0000         3
  66.0500         4
  66.1000         5
  66.1500         4
  66.2000         8
  66.2500         8
  66.3000         7
  66.3500         4
  66.4000         6
  66.4500         7
  66.5000         3
  66.5500         3
  66.6000         6
  66.6500         1
  66.7000         4
  66.7500         3
  66.8000         5
  66.8500         5
  66.9000         7
  66.9500         5
  67.0000        10
  67.0500         2
  67.1000         3
  67.1500         6
  67.2000         3
  67.2500         1
  67.3000         2
  67.3500         2
  67.4000         2
  67.4500         5
  67.5000         2
  67.5500         4
  67.6000         1
  67.6500         3
  67.7000         3
  67.7500         3
  67.8000         5
  67.8500         6
  67.9000         2
  67.9500         4
  68.0000         5
  68.0500         0
  68.1000         0
  68.1500         5
  68.2000         2
  68.2500         5
  68.3000         3
  68.3500         4
  68.4000         5
  68.4500         6
  68.5000         5
  68.5500         1
  68.6000         5
  68.6500         4
  68.7000         2
  68.7500         4
  68.8000         2
  68.8500         4
  68.9000         7
  68.9500         2
  69.0000         6
  69.0500         2
  69.1000         0
  69.1500         7
  69.2000         1
  69.2500         5
  69.3000         4
  69.3500         8
  69.4000         5
  69.4500         1
  69.5000         2
  69.5500         5
  69.6000         2
  69.6500         3
  69.7000         5
  69.7500         4
  69.8000         3
  69.8500         2
  69.9000         1
  69.9500         6
  70.0000         3
  70.0500         2
  70.1000         6
  70.1500         2
  70.2000         6
  70.2500         4
  70.3000         5
  70.3500         4
  70.4000         2
  70.4500         1
  70.5000         1
  70.5500         5
  70.6000         6
  70.6500         5
  70.7000         1
  70.7500         4
  70.8000         1
  70.8500         2
  70.9000         2
  70.9500         4
  71.0000         3
  71.0500         3
  71.1000         6
  71.1500         3
  71.2000         5
  71.2500         2
  71.3000         5
  71.3500         1
  71.4000         2
  71.4500         4
  71.5000         4
  71.5500         4
  71.6000         4
  71.6500         1
  71.7000         3
  71.7500         4
  71.8000         4
  71.8500         3
  71.9000         4
  71.9500         4
  72.0000         5
  72.0500         5
  72.1000         5
  72.1500         5
  72.2000         4
  72.2500         2
  72.3000         6
  72.3500         3
  72.4000         4
  72.4500         4
  72.5000        13
  72.5500        13
  72.6000         4
  72.6500         6
  72.7000         3
  72.7500         2
  72.8000         5
  72.8500         2
  72.9000         2
  72.9500         0
  73.0000         5
  73.0500         5
  73.1000         3
  73.1500         2
  73.2000         7
  73.2500         2
  73.3000         6
  73.3500         7
  73.4000         6
  73.4500         4
  73.5000         4
  73.5500         4
  73.6000         5
  73.6500         2
  73.7000         2
  73.7500         2
  73.8000         3
  73.8500         2
  73.9000         3
  73.9500         2
  74.0000         2
  74.0500         4
  74.1000         6
  74.1500         1
  74.2000         4
  74.2500         1
  74.3000         4
  74.3500         3
  74.4000         5
  74.4500         2
  74.5000         2
  74.5500         5
  74.6000         1
  74.6500         4
  74.7000         3
  74.7500         2
  74.8000         4
  74.8500         5
  74.9000         4
  74.9500         5
  75.0000         2
  75.0500         4
  75.1000         7
  75.1500         3
  75.2000         3
  75.2500         4
  75.3000         3
  75.3500         2
  75.4000         3
  75.4500         5
  75.5000         2
  75.5500         3
  75.6000         4
  75.6500         3
  75.7000         6
  75.7500         7
  75.8000         3
  75.8500         2
  75.9000         5
  75.9500         3
  76.0000         3
  76.0500         2
  76.1000         5
  76.1500         4
  76.2000         3
  76.2500         4
  76.3000         2
  76.3500         1
  76.4000         4
  76.4500         2
  76.5000         5
  76.5500         3
  76.6000         5
  76.6500         7
  76.7000         2
  76.7500         3
  76.8000         7
  76.8500         3
  76.9000         8
  76.9500         9
  77.0000         6
  77.0500        10
  77.1000         9
  77.1500        13
  77.2000        26
  77.2500        16
  77.3000        11
  77.3500         7
  77.4000        12
  77.4500        13
  77.5000        11
  77.5500         7
  77.6000         5
  77.6500         3
  77.7000         6
  77.7500         3
  77.8000         2
  77.8500         6
  77.9000         1
  77.9500         2
  78.0000         2
  78.0500         3
  78.1000         2
  78.1500         5
  78.2000         2
  78.2500         3
  78.3000         2
  78.3500         3
  78.4000         2
  78.4500         2
  78.5000         3
  78.5500         3
  78.6000         3
  78.6500         2
  78.7000         4
  78.7500         2
  78.8000         7
  78.8500         5
  78.9000         4
  78.9500         5
  79.0000         6
  79.0500         2
  79.1000         1
  79.1500         4
  79.2000         4
  79.2500         7
  79.3000         4
  79.3500         3
  79.4000         3
  79.4500         1
  79.5000         5
  79.5500         5
  79.6000         7
  79.6500         7
  79.7000         7
  79.7500         5
  79.8000         6
  79.8500         6
  79.9000        11
  79.9500         8
  80.0000         4
  80.0500         8
  80.1000         1
  80.1500         5
  80.2000         3
  80.2500         4
  80.3000         3
  80.3500         6
  80.4000         1
  80.4500         6
  80.5000         1
  80.5500         2
  80.6000         2
  80.6500         5
  80.7000         1
  80.7500         5
  80.8000         2
  80.8500         4
  80.9000         0
  80.9500         1
  81.0000         3
  81.0500         1
  81.1000         5
  81.1500         3
  81.2000         7
  81.2500         4
  81.3000         2
  81.3500         5
  81.4000         3
  81.4500         3
  81.5000         2
  81.5500         7
  81.6000         4
  81.6500         4
  81.7000         2
  81.7500         1
  81.8000         0
  81.8500         3
  81.9000         7
  81.9500         3
  82.0000         3
  82.0500         6
  82.1000         3
  82.1500         1
  82.2000         5
  82.2500         4
  82.3000         5
  82.3500         4
  82.4000         6
  82.4500         2
  82.5000         4
  82.5500         4
  82.6000         3
  82.6500         4
  82.7000         6
  82.7500         2
  82.8000         2
  82.8500         4
  82.9000         7
  82.9500         3
  83.0000         3
  83.0500         4
  83.1000         5
  83.1500         1
  83.2000         4
  83.2500         2
  83.3000         3
  83.3500         4
  83.4000         3
  83.4500         1
  83.5000         6
  83.5500         4
  83.6000         3
  83.6500         4
  83.7000         2
  83.7500         5
  83.8000         3
  83.8500         3
  83.9000         2
  83.9500         3
  84.0000         3
  84.0500         5
  84.1000         2
  84.1500         9
  84.2000         5
  84.2500         3
  84.3000         4
  84.3500         6
  84.4000         4
  84.4500         2
  84.5000         9
  84.5500         4
  84.6000         3
  84.6500         4
  84.7000         4
  84.7500         6
  84.8000         4
  84.8500         3
  84.9000         4
  84.9500         7
  85.0000         5
  85.0500         5
  85.1000         9
  85.1500         6
  85.2000         1
  85.2500         6
  85.3000         4
  85.3500         5
  85.4000         6
  85.4500        10
  85.5000        24
  85.5500        33
  85.6000        52
  85.6500        59
  85.7000        41
  85.7500        18
  85.8000        22
  85.8500        36
  85.9000        32
  85.9500        20
  86.0000        16
  86.0500        10
  86.1000         8
  86.1500         6
  86.2000         4
  86.2500         8
  86.3000         1
  86.3500         6
  86.4000         2
  86.4500         7
  86.5000         7
  86.5500         5
  86.6000         7
  86.6500         3
  86.7000         8
  86.7500         4
  86.8000         9
  86.8500         4
  86.9000         2
  86.9500         2
  87.0000         3
  87.0500         5
  87.1000         4
  87.1500         3
  87.2000         5
  87.2500         5
  87.3000         3
  87.3500         1
  87.4000         6
  87.4500         3
  87.5000         4
  87.5500         4
  87.6000         5
  87.6500         5
  87.7000         6
  87.7500         7
  87.8000         4
  87.8500         3
  87.9000         5
  87.9500        10
  88.0000         5
  88.0500         5
  88.1000         3
  88.1500        10
  88.2000         8
  88.2500        13
  88.3000        10
  88.3500        30
  88.4000        36
  88.4500        36
  88.5000        28
  88.5500        16
  88.6000        18
  88.6500        20
  88.7000        19
  88.7500        23
  88.8000         7
  88.8500         9
  88.9000         6
  88.9500         3
  89.0000         8
  89.0500         6
  89.1000         4
  89.1500         1
  89.2000         3
  89.2500         2
  89.3000         5
  89.3500         3
  89.4000         3
  89.4500         2
  89.5000         5
  89.5500         7
  89.6000         2
  89.6500         8
  89.7000         6
  89.7500         4
  89.8000         3
  89.8500         5
  89.9000         3
  89.9500         6
  90.0000         3
  90.0500         3
  90.1000         1
  90.1500         3
  90.2000         2
  90.2500         3
  90.3000         1
  90.3500         0
  90.4000         3
  90.4500         3
  90.5000        12
  90.5500         3
  90.6000         5
  90.6500         4
  90.7000         5
  90.7500         1
  90.8000         9
  90.8500         5
  90.9000         2
  90.9500         5
  91.0000         1
  91.0500         3
  91.1000         5
  91.1500         0
  91.2000         9
  91.2500         4
  91.3000         1
  91.3500         2
  91.4000         2
  91.4500         4
  91.5000         2
  91.5500         3
  91.6000         5
  91.6500         2
  91.7000         3
  91.7500         2
  91.8000         3
  91.8500         4
  91.9000         7
  91.9500         5
  92.0000         3
  92.0500         3
  92.1000         1
  92.1500         2
  92.2000         2
  92.2500         3
  92.3000         4
  92.3500         8
  92.4000         4
  92.4500         3
  92.5000         5
  92.5500         5
  92.6000         4
  92.6500         7
  92.7000         1
  92.7500         2
  92.8000         3
  92.8500         6
  92.9000         2
  92.9500         1
  93.0000         2
  93.0500         7
  93.1000         5
  93.1500         3
  93.2000         6
  93.2500         5
  93.3000         3
  93.3500         3
  93.4000         4
  93.4500         4
  93.5000         5
  93.5500         5
  93.6000         1
  93.6500         3
  93.7000         5
  93.7500         2
  93.8000         0
  93.8500         6
  93.9000         2
  93.9500         3
  94.0000         4
  94.0500         3
  94.1000         4
  94.1500         7
  94.2000         4
  94.2500         3
  94.3000         5
  94.3500         6
  94.4000         3
  94.4500         5
  94.5000         3
  94.5500         6
  94.6000         1
  94.6500         5
  94.7000         3
  94.7500         2
  94.8000         3
  94.8500         6
  94.9000         4
  94.9500         4
  95.0000         6
  95.0500         3
  95.1000         6
  95.1500         7
  95.2000         5
  95.2500         4
  95.3000         5
  95.3500         5
  95.4000         4
  95.4500         7
  95.5000         2
  95.5500         4
  95.6000         6
  95.6500         7
  95.7000         5
  95.7500         5
  95.8000         2
  95.8500         4
  95.9000         4
  95.9500         7
  96.0000         2
  96.0500         2
  96.1000         3
  96.1500         3
  96.2000         7
  96.2500         3
  96.3000         3
  96.3500         5
  96.4000         0
  96.4500         5
  96.5000         3
  96.5500         6
  96.6000         1
  96.6500         6
  96.7000         6
  96.7500         6
  96.8000        10
  96.8500         3
  96.9000        10
  96.9500         3
  97.0000         1
  97.0500         2
  97.1000         3
  97.1500         5
  97.2000         1
  97.2500         2
  97.3000         1
  97.3500         5
  97.4000         8
  97.4500         4
  97.5000         3
  97.5500         5
  97.6000         5
  97.6500         5
  97.7000         6
  97.7500         5
  97.8000         5
  97.8500         2
  97.9000         5
  97.9500         4
  98.0000         8
  98.0500         5
  98.1000         4
  98.1500         5
  98.2000         6
  98.2500         4
  98.3000         3
  98.3500         3
  98.4000         7
  98.4500         5
  98.5000         0
  98.5500         3
  98.6000         2
  98.6500         3
  98.7000         2
  98.7500         5
  98.8000         1
  98.8500         6
  98.9000         6
  98.9500         5
  99.0000         5
  99.0500         8
  99.1000        10
  99.1500         1
  99.2000         6
  99.2500         6
  99.3000        11
  99.3500         8
  99.4000        12
  99.4500        14
  99.5000        24
  99.5500        25
  99.6000        23
  99.6500        23
  99.7000        21
  99.7500        17
  99.8000        12
  99.8500        13
  99.9000        18
  99.9500        13
 100.0000        15
 100.0500         6
 100.1000         5
 100.1500         6
 100.2000         4
 100.2500         3
 100.3000         8
 100.3500         8
 100.4000         3
 100.4500         3
 100.5000         8
 100.5500         2
 100.6000         4
 100.6500        10
 100.7000         4
 100.7500         2
 100.8000         4
 100.8500         6
 100.9000         6
 100.9500         5
 101.0000         1
 101.0500         2
 101.1000         3
 101.1500         4
 101.2000         7
 101.2500        10
 101.3000         1
 101.3500         5
 101.4000         5
 101.4500         6
 101.5000         7
 101.5500         5
 101.6000         8
 101.6500         2
 101.7000         7
 101.7500         3
 101.8000         9
 101.8500         7
 101.9000         4
 101.9500         6
 102.0000         7
 102.0500         4
 102.1000         3
 102.1500         3
 102.2000         1
 102.2500         3
 102.3000         6
 102.3500         3
 102.4000         4
 102.4500         4
 102.5000         5
 102.5500         4
 102.6000         4
 102.6500         4
 102.7000         2
 102.7500         2
 102.8000         5
 102.8500         7
 102.9000         6
 102.9500         4
 103.0000         3
 103.0500         4
 103.1000         2
 103.1500         7
 103.2000         4
 103.2500         3
 103.3000         7
 103.3500         7
 103.4000         7
 103.4500         3
 103.5000         8
 103.5500         3
 103.6000         5
 103.6500         2
 103.7000         3
 103.7500         6
 103.8000         4
 103.8500         4
 103.9000         5
 103.9500         4
 104.0000         7
 104.0500         6
 104.1000         4
 104.1500         4
 104.2000         6
 104.2500         4
 104.3000         5
 104.3500         5
 104.4000         5
 104.4500         6
 104.5000         8
 104.5500         2
 104.6000         2
 104.6500         2
 104.7000         3
 104.7500         4
 104.8000         5
 104.8500         4
 104.9000         5
 104.9500         6
 105.0000         3
 105.0500         2
 105.1000         4
 105.1500         3
 105.2000         5
 105.2500         3
 105.3000         7
 105.3500         2
 105.4000         2
 105.4500         8
 105.5000         6
 105.5500         5
 105.6000         2
 105.6500         6
 105.7000         5
 105.7500         2
 105.8000         7
 105.8500         5
 105.9000         5
 105.9500         6
 106.0000         3
 106.0500         7
 106.1000         2
 106.1500         5
 106.2000         4
 106.2500         8
 106.3000         2
 106.3500         5
 106.4000         4
 106.4500         1
 106.5000         3
 106.5500         0
 106.6000         4
 106.6500         9
 106.7000         5
 106.7500         5
 106.8000         2
 106.8500         3
 106.9000         2
 106.9500         6
 107.0000         4
 107.0500         1
 107.1000         7
 107.1500         0
 107.2000         7
 107.2500         3
 107.3000         5
 107.3500         2
 107.4000         4
 107.4500         5
 107.5000         5
 107.5500         4
 107.6000         6
 107.6500         2
 107.7000         7
 107.7500         6
 107.8000         6
 107.8500         6
 107.9000        10
 107.9500         6
 108.0000        14
 108.0500        19
 108.1000        22
 108.1500        29
 108.2000        28
 108.2500        25
 108.3000        15
 108.3500        11
 108.4000        11
 108.4500        16
 108.5000        20
 108.5500        14
 108.6000        18
 108.6500        11
 108.7000         9
 108.7500         6
 108.8000         7
 108.8500         4
 108.9000         7
 108.9500         5
 109.0000         6
 109.0500         4
 109.1000         4
 109.1500         5
 109.2000         4
 109.2500         5
 109.3000         3
 109.3500         3
 109.4000         4
 109.4500         3
 109.5000         4
 109.5500         4
 109.6000         6
 109.6500         4
 109.7000         4
 109.7500         6
 109.8000         7
 109.8500         2
 109.9000         6
 109.9500         2
 110.0000         6
