  10.0000        18
  10.0500        11
  10.1000        11
  10.1500        12
  10.2000        15
  10.2500        20
  10.3000        14
  10.3500        20
  10.4000        19
  10.4500        17
  10.5000        15
  10.5500        15
  10.6000        17
  10.6500        23
  10.7000        20
  10.7500        19
  10.8000        16
  10.8500        23
  10.9000        22
  10.9500        21
  11.0000        13
  11.0500        12
  11.1000        18
  11.1500        23
  11.2000        19
  11.2500        25
  11.3000        18
  11.3500        20
  11.4000        20
  11.4500        13
  11.5000        15
  11.5500        18
  11.6000        31
  11.6500        17
  11.7000        20
  11.7500        22
  11.8000        28
  11.8500        17
  11.9000        21
  11.9500        21
  12.0000        28
  12.0500        27
  12.1000        17
  12.1500        15
  12.2000        19
  12.2500        23
  12.3000        21
  12.3500        22
  12.4000        25
  12.4500        18
  12.5000        21
  12.5500        17
  12.6000        16
  12.6500        21
  12.7000        18
  12.7500        15
  12.8000        21
  12.8500        19
  12.9000        21
  12.9500        21
  13.0000        13
  13.0500        15
  13.1000        19
  13.1500        12
  13.2000        13
  13.2500        26
  13.3000        17
  13.3500        16
  13.4000        16
  13.4500        18
  13.5000        23
  13.5500        23
  13.6000        20
  13.6500        18
  13.7000        24
  13.7500        26
  13.8000        12
  13.8500        22
  13.9000        13
  13.9500        11
  14.0000        18
  14.0500        13
  14.1000        15
  14.1500        25
  14.2000        23
  14.2500        22
  14.3000        15
  14.3500        12
  14.4000        12
  14.4500        11
  14.5000        13
  14.5500        15
  14.6000        18
  14.6500        15
  14.7000         9
  14.7500         7
  14.8000        11
  14.8500         7
  14.9000        11
  14.9500        11
  15.0000        18
  15.0500        14
  15.1000        11
  15.1500         9
  15.2000         9
  15.2500        10
  15.3000        11
  15.3500        22
  15.4000        14
  15.4500        15
  15.5000        13
  15.5500        17
  15.6000        10
  15.6500        19
  15.7000         8
  15.7500        17
  15.8000        15
  15.8500        10
  15.9000        12
  15.9500        18
  16.0000        15
  16.0500        10
  16.1000         8
  16.1500        12
  16.2000        11
  16.2500         8
  16.3000        11
  16.3500        12
  16.4000        12
  16.4500        10
  16.5000        11
  16.5500        10
  16.6000         6
  16.6500         8
  16.7000         7
  16.7500         8
  16.8000        13
  16.8500         8
  16.9000        10
  16.9500        10
  17.0000        16
  17.0500        12
  17.1000        13
  17.1500        11
  17.2000        19
  17.2500         8
  17.3000        14
  17.3500         8
  17.4000         7
  17.4500        16
  17.5000        15
  17.5500         8
  17.6000        11
  17.6500        16
  17.7000        16
  17.7500         8
  17.8000        17
  17.8500        10
  17.9000        14
  17.9500        10
  18.0000        11
  18.0500         9
  18.1000        10
  18.1500        12
  18.2000         4
  18.2500        13
  18.3000         6
  18.3500        14
  18.4000         8
  18.4500        11
  18.5000        16
  18.5500        14
  18.6000         7
  18.6500        14
  18.7000         8
  18.7500         8
  18.8000        16
  18.8500        10
  18.9000        11
  18.9500         7
  19.0000        13
  19.0500        15
  19.1000        18
  19.1500        16
  19.2000        14
  19.2500        15
  19.3000        10
  19.3500        19
  19.4000        11
  19.4500        12
  19.5000        13
  19.5500        13
  19.6000        12
  19.6500        11
  19.7000        15
  19.7500        17
  19.8000        14
  19.8500        15
  19.9000        17
  19.9500         8
  20.0000        10
  20.0500        15
  20.1000        17
  20.1500         9
  20.2000         8
  20.2500        13
  20.3000        14
  20.3500         6
  20.4000        14
  20.4500        10
  20.5000        17
  20.5500        15
  20.6000        13
  20.6500        13
  20.7000        11
  20.7500         8
  20.8000        18
  20.8500         8
  20.9000         9
  20.9500        12
  21.0000        17
  21.0500         8
  21.1000        15
  21.1500        14
  21.2000        15
  21.2500        11
  21.3000        15
  21.3500        14
  21.4000        13
  21.4500        13
  21.5000         7
  21.5500        16
  21.6000         8
  21.6500        16
  21.7000        11
  21.7500         9
  21.8000        14
  21.8500         9
  21.9000        19
  21.9500        13
  22.0000         9
  22.0500        17
  22.1000        10
  22.1500        14
  22.2000        13
  22.2500         7
  22.3000        14
  22.3500        18
  22.4000        18
  22.4500        13
  22.5000        14
  22.5500        12
  22.6000        16
  22.6500        13
  22.7000        16
  22.7500         8
  22.8000        12
  22.8500        18
  22.9000        14
  22.9500        15
  23.0000        13
  23.0500        12
  23.1000        11
  23.1500        11
  23.2000        15
  23.2500        12
  23.3000        12
  23.3500         7
  23.4000        13
  23.4500        16
  23.5000         4
  23.5500        15
  23.6000        16
  23.6500         7
  23.7000        15
  23.7500         9
  23.8000        14
  23.8500        10
  23.9000        10
  23.9500        13
  24.0000         9
  24.0500        16
  24.1000        10
  24.1500        12
  24.2000        13
  24.2500        12
  24.3000        17
  24.3500         6
  24.4000        12
  24.4500        15
  24.5000        13
  24.5500         7
  24.6000         9
  24.6500        14
  24.7000        17
  24.7500         5
  24.8000        13
  24.8500        10
  24.9000         8
  24.9500        11
  25.0000        10
  25.0500        12
  25.1000        10
  25.1500        13
  25.2000        14
  25.2500         6
  25.3000        13
  25.3500         8
  25.4000        11
  25.4500         9
  25.5000        11
  25.5500        11
  25.6000         9
  25.6500        14
  25.7000        12
  25.7500        13
  25.8000         9
  25.8500         7
  25.9000         8
  25.9500        11
  26.0000         6
  26.0500        10
  26.1000        18
  26.1500        10
  26.2000         8
  26.2500        13
  26.3000        10
  26.3500        12
  26.4000         6
  26.4500         9
  26.5000        11
  26.5500         6
  26.6000        12
  26.6500        16
  26.7000        10
  26.7500        11
  26.8000        12
  26.8500        11
  26.9000         7
  26.9500         7
  27.0000         7
  27.0500        10
  27.1000         6
  27.1500         9
  27.2000        10
  27.2500        15
  27.3000         9
  27.3500         5
  27.4000         9
  27.4500        12
  27.5000         7
  27.5500         8
  27.6000        11
  27.6500        10
  27.7000        11
  27.7500         4
  27.8000         7
  27.8500        11
  27.9000         6
  27.9500         9
  28.0000         6
  28.0500         7
  28.1000         9
  28.1500         9
  28.2000         5
  28.2500         5
  28.3000         6
  28.3500         7
  28.4000         8
  28.4500         9
  28.5000        11
  28.5500         9
  28.6000        11
  28.6500         8
  28.7000        12
  28.7500         8
  28.8000        15
  28.8500        11
  28.9000        11
  28.9500        11
  29.0000        11
  29.0500         5
  29.1000         8
  29.1500        13
  29.2000         6
  29.2500         5
  29.3000         7
  29.3500         3
  29.4000         8
  29.4500         8
  29.5000         9
  29.5500        11
  29.6000         4
  29.6500         4
  29.7000         5
  29.7500        10
  29.8000         9
  29.8500         5
  29.9000         5
  29.9500         8
  30.0000         6
  30.0500         8
  30.1000         3
  30.1500        10
  30.2000         3
  30.2500         8
  30.3000         6
  30.3500         6
  30.4000         7
  30.4500         9
  30.5000         8
  30.5500         8
  30.6000         6
  30.6500        10
  30.7000         9
  30.7500        11
  30.8000         5
  30.8500        12
  30.9000         5
  30.9500         9
  31.0000         4
  31.0500        10
  31.1000         7
  31.1500         9
  31.2000        11
  31.2500         5
  31.3000         8
  31.3500         7
  31.4000         6
  31.4500         6
  31.5000         8
  31.5500         8
  31.6000         8
  31.6500         6
  31.7000         8
  31.7500         6
  31.8000         7
  31.8500         4
  31.9000         7
  31.9500         4
  32.0000         6
  32.0500         6
  32.1000        18
  32.1500         9
  32.2000         7
  32.2500         4
  32.3000         4
  32.3500         6
  32.4000         4
  32.4500        10
  32.5000         5
  32.5500         7
  32.6000         6
  32.6500        10
  32.7000         5
  32.7500         6
  32.8000         8
  32.8500        10
  32.9000         5
  32.9500         7
  33.0000         5
  33.0500         6
  33.1000         6
  33.1500         6
  33.2000         8
  33.2500         6
  33.3000         9
  33.3500         2
  33.4000         5
  33.4500        10
  33.5000         6
  33.5500         2
  33.6000         2
  33.6500         8
  33.7000         7
  33.7500         9
  33.8000         6
  33.8500         7
  33.9000         9
  33.9500         5
  34.0000         7
  34.0500         8
  34.1000         9
  34.1500         8
  34.2000         9
  34.2500         8
  34.3000         4
  34.3500         5
  34.4000         9
  34.4500         9
  34.5000         8
  34.5500         7
  34.6000         5
  34.6500         2
  34.7000         4
  34.7500         4
  34.8000         2
  34.8500         5
  34.9000         6
  34.9500         8
  35.0000         3
  35.0500         5
  35.1000         5
  35.1500         6
  35.2000         6
  35.2500         9
  35.3000        10
  35.3500         9
  35.4000         4
  35.4500         3
  35.5000         5
  35.5500         5
  35.6000         7
  35.6500        10
  35.7000         4
  35.7500         9
  35.8000         5
  35.8500         6
  35.9000         6
  35.9500         7
  36.0000         6
  36.0500         5
  36.1000         6
  36.1500         8
  36.2000         2
  36.2500         6
  36.3000         4
  36.3500         7
  36.4000         5
  36.4500        12
  36.5000        13
  36.5500        12
  36.6000         6
  36.6500         4
  36.7000         7
  36.7500         8
  36.8000         9
  36.8500         3
  36.9000         5
  36.9500         9
  37.0000         4
  37.0500         6
  37.1000         7
  37.1500        10
  37.2000         6
  37.2500         6
  37.3000         5
  37.3500         4
  37.4000         6
  37.4500         7
  37.5000         6
  37.5500         4
  37.6000        13
  37.6500         7
  37.7000         5
  37.7500        12
  37.8000        11
  37.8500         6
  37.9000         4
  37.9500         5
  38.0000         6
  38.0500         8
  38.1000         5
  38.1500         7
  38.2000         6
  38.2500         8
  38.3000         4
  38.3500         4
  38.4000         4
  38.4500         6
  38.5000         6
  38.5500        10
  38.6000         5
  38.6500         4
  38.7000        10
  38.7500         6
  38.8000         4
  38.8500         8
  38.9000         7
  38.9500         8
  39.0000         4
  39.0500        13
  39.1000         5
  39.1500         5
  39.2000         6
  39.2500         6
  39.3000         9
  39.3500         6
  39.4000         5
  39.4500         6
  39.5000         3
  39.5500         4
  39.6000         4
  39.6500         4
  39.7000         4
  39.7500         4
  39.8000         3
  39.8500         6
  39.9000         3
  39.9500         2
  40.0000         5
  40.0500         7
  40.1000         6
  40.1500        11
  40.2000         0
  40.2500         8
  40.3000         4
  40.3500         4
  40.4000         5
  40.4500         1
  40.5000         7
  40.5500         4
  40.6000         9
  40.6500         5
  40.7000         6
  40.7500        12
  40.8000         3
  40.8500         9
  40.9000        13
  40.9500         7
  41.0000        11
  41.0500        10
  41.1000         6
  41.1500        11
  41.2000         7
  41.2500         8
  41.3000         7
  41.3500         4
  41.4000         7
  41.4500         9
  41.5000         6
  41.5500        18
  41.6000        34
  41.6500        62
  41.7000       169
  41.7500       494
  41.8000       439
  41.8500       385
  41.9000       206
  41.9500       126
  42.0000        59
  42.0500        19
  42.1000        24
  42.1500        13
  42.2000         5
  42.2500         6
  42.3000         4
  42.3500         7
  42.4000         7
  42.4500         7
  42.5000        10
  42.5500         7
  42.6000         7
  42.6500         9
  42.7000         4
  42.7500        10
  42.8000         8
  42.8500         5
  42.9000         3
  42.9500         4
  43.0000         6
  43.0500        12
  43.1000         6
  43.1500         2
  43.2000         5
  43.2500         3
  43.3000         6
  43.3500         8
  43.4000         5
  43.4500         4
  43.5000         4
  43.5500         5
  43.6000         4
  43.6500         6
  43.7000         7
  43.7500         5
  43.8000         8
  43.8500         1
  43.9000         6
  43.9500         5
  44.0000         2
  44.0500         1
  44.1000         1
  44.1500         6
  44.2000         8
  44.2500         2
  44.3000         8
  44.3500         5
  44.4000         3
  44.4500         4
  44.5000         4
  44.5500         9
  44.6000        10
  44.6500         4
  44.7000         3
  44.7500        10
  44.8000         7
  44.8500         7
  44.9000         6
  44.9500         4
  45.0000         3
  45.0500         4
  45.1000         2
  45.1500         4
  45.2000         4
  45.2500        10
  45.3000         5
  45.3500         6
  45.4000         3
  45.4500         4
  45.5000         6
  45.5500        10
  45.6000         4
  45.6500         5
  45.7000         3
  45.7500         5
  45.8000         5
  45.8500         4
  45.9000         5
  45.9500         5
  46.0000         2
  46.0500         1
  46.1000         8
  46.1500         2
  46.2000         3
  46.2500         2
  46.3000         5
  46.3500         2
  46.4000         5
  46.4500         3
  46.5000         4
  46.5500         7
  46.6000         7
  46.6500         7
  46.7000         3
  46.7500         4
  46.8000         7
  46.8500         3
  46.9000         9
  46.9500         6
  47.0000         6
  47.0500         6
  47.1000         6
  47.1500         6
  47.2000         5
  47.2500         8
  47.3000         7
  47.3500         3
  47.4000         4
  47.4500         7
  47.5000         7
  47.5500         4
  47.6000         7
  47.6500         3
  47.7000         1
  47.7500         7
  47.8000         2
  47.8500         7
  47.9000         7
  47.9500        12
  48.0000         7
  48.0500         5
  48.1000         7
  48.1500         9
  48.2000         7
  48.2500         4
  48.3000        18
  48.3500         6
  48.4000        13
  48.4500        22
  48.5000        51
  48.5500       144
  48.6000       197
  48.6500       167
  48.7000       161
  48.7500        97
  48.8000        56
  48.8500        33
  48.9000        16
  48.9500         8
  49.0000         7
  49.0500        10
  49.1000         9
  49.1500         4
  49.2000         2
  49.2500         7
  49.3000        13
  49.3500         8
  49.4000         5
  49.4500         9
  49.5000         2
  49.5500         5
  49.6000         5
  49.6500         6
  49.7000         6
  49.7500         4
  49.8000         5
  49.8500         6
  49.9000         5
  49.9500         8
  50.0000         5
  50.0500         5
  50.1000         3
  50.1500         5
  50.2000         5
  50.2500        10
  50.3000         4
  50.3500         2
  50.4000         6
  50.4500         2
  50.5000         9
  50.5500         7
  50.6000         3
  50.6500         8
  50.7000         8
  50.7500         4
  50.8000         7
  50.8500         3
  50.9000         4
  50.9500         7
  51.0000         4
  51.0500         4
  51.1000         4
  51.1500         7
  51.2000         6
  51.2500         4
  51.3000         3
  51.3500         5
  51.4000         6
  51.4500         4
  51.5000         4
  51.5500         3
  51.6000         4
  51.6500         5
  51.7000         5
  51.7500         7
  51.8000         3
  51.8500         3
  51.9000         2
  51.9500         4
  52.0000         3
  52.0500        10
  52.1000         7
  52.1500         4
  52.2000         6
  52.2500         0
  52.3000         6
  52.3500         9
  52.4000         3
  52.4500         9
  52.5000         3
  52.5500         1
  52.6000         5
  52.6500         4
  52.7000         7
  52.7500         2
  52.8000         3
  52.8500        11
  52.9000         3
  52.9500         6
  53.0000         5
  53.0500         7
  53.1000         4
  53.1500         4
  53.2000         4
  53.2500         8
  53.3000         4
  53.3500         5
  53.4000         7
  53.4500         2
  53.5000         4
  53.5500         3
  53.6000         0
  53.6500         1
  53.7000         4
  53.7500         3
  53.8000         6
  53.8500        13
  53.9000         5
  53.9500         4
  54.0000         6
  54.0500         4
  54.1000         6
  54.1500         5
  54.2000         3
  54.2500         3
  54.3000         7
  54.3500         6
  54.4000         3
  54.4500         9
  54.5000         4
  54.5500         2
  54.6000         6
  54.6500         4
  54.7000         6
  54.7500         9
  54.8000         4
  54.8500         3
  54.9000         7
  54.9500         4
  55.0000         9
  55.0500         6
  55.1000         6
  55.1500         3
  55.2000         7
  55.2500         8
  55.3000         2
  55.3500         5
  55.4000         4
  55.4500         4
  55.5000         6
  55.5500         5
  55.6000         6
  55.6500         2
  55.7000         3
  55.7500         4
  55.8000         6
  55.8500         3
  55.9000         7
  55.9500         5
  56.0000         6
  56.0500         5
  56.1000         9
  56.1500         6
  56.2000         5
  56.2500         6
  56.3000         5
  56.3500         1
  56.4000         4
  56.4500         7
  56.5000         2
  56.5500         5
  56.6000         3
  56.6500         6
  56.7000         8
  56.7500         2
  56.8000         6
  56.8500         7
  56.9000         5
  56.9500         6
  57.0000         2
  57.0500         4
  57.1000         9
  57.1500         5
  57.2000         6
  57.2500         5
  57.3000         5
  57.3500         4
  57.4000         6
  57.4500         2
  57.5000         4
  57.5500         7
  57.6000         7
  57.6500         6
  57.7000         4
  57.7500         3
  57.8000         8
  57.8500         3
  57.9000         4
  57.9500         3
  58.0000         3
  58.0500         6
  58.1000         4
  58.1500         2
  58.2000         5
  58.2500         2
  58.3000         7
  58.3500        10
  58.4000         5
  58.4500         3
  58.5000         3
  58.5500         2
  58.6000         6
  58.6500         5
  58.7000         3
  58.7500        11
  58.8000         5
  58.8500         7
  58.9000         4
  58.9500         5
  59.0000         8
  59.0500         4
  59.1000         2
  59.1500         4
  59.2000         2
  59.2500         9
  59.3000         7
  59.3500         7
  59.4000         3
  59.4500         7
  59.5000         8
  59.5500         7
  59.6000         5
  59.6500         7
  59.7000         2
  59.7500         6
  59.8000         9
  59.8500         5
  59.9000         4
  59.9500         2
  60.0000         2
  60.0500         6
  60.1000         4
  60.1500         4
  60.2000         5
  60.2500         3
  60.3000         4
  60.3500         6
  60.4000         5
  60.4500         7
  60.5000         5
  60.5500         7
  60.6000         4
  60.6500         4
  60.7000         2
  60.7500         4
  60.8000         7
  60.8500         4
  60.9000        10
  60.9500         6
  61.0000         7
  61.0500         3
  61.1000         4
  61.1500         2
  61.2000         4
  61.2500         6
  61.3000         8
  61.3500         2
  61.4000         6
  61.4500        10
  61.5000         4
  61.5500         1
  61.6000         7
  61.6500         4
  61.7000         4
  61.7500         6
  61.8000         8
  61.8500         6
  61.9000         5
  61.9500         7
  62.0000         3
  62.0500        13
  62.1000         3
  62.1500         4
  62.2000         5
  62.2500         5
  62.3000         6
  62.3500         8
  62.4000         5
  62.4500         4
  62.5000         6
  62.5500         3
  62.6000         6
  62.6500         7
  62.7000         3
  62.7500         3
  62.8000         7
  62.8500         0
  62.9000         6
  62.9500         1
  63.0000         6
  63.0500         5
  63.1000         9
  63.1500         7
  63.2000         4
  63.2500         4
  63.3000         5
  63.3500         6
  63.4000         2
  63.4500         3
  63.5000         6
  63.5500         7
  63.6000         4
  63.6500         6
  63.7000         3
  63.7500        10
  63.8000         2
  63.8500         6
  63.9000         2
  63.9500         2
  64.0000         6
  64.0500         8
  64.1000         8
  64.1500         3
  64.2000         2
  64.2500         3
  64.3000         4
  64.3500         6
  64.4000         3
  64.4500         3
  64.5000         5
  64.5500         3
  64.6000         4
  64.6500         4
  64.7000         2
  64.7500         6
  64.8000         5
  64.8500         4
  64.9000         0
  64.9500         4
  65.0000         5
  65.0500         2
  65.1000         3
  65.1500         6
  65.2000         8
  65.2500         4
  65.3000         5
  65.3500         7
  65.4000         4
  65.4500         5
  65.5000         1
  65.5500         3
  65.6000         7
  65.6500         6
  65.7000         2
  65.7500         4
  65.8000         4
  65.8500         7
  65.9000         9
  65.9500         4
  66.0000         2
  66.0500         4
  66.1000         1
  66.1500         5
  66.2000         8
  66.2500         4
  66.3000         3
  66.3500         5
  66.4000         4
  66.4500         9
  66.5000         6
  66.5500         6
  66.6000         3
  66.6500         3
  66.7000         7
  66.7500         5
  66.8000         2
  66.8500         4
  66.9000         5
  66.9500         9
  67.0000         8
  67.0500         7
  67.1000         3
  67.1500         2
  67.2000         5
  67.2500         7
  67.3000         5
  67.3500         9
  67.4000         9
  67.4500         7
  67.5000         4
  67.5500         2
  67.6000         3
  67.6500         8
  67.7000         9
  67.7500         5
  67.8000         3
  67.8500         4
  67.9000         5
  67.9500         6
  68.0000         6
  68.0500         3
  68.1000         2
  68.1500         5
  68.2000         5
  68.2500         3
  68.3000        10
  68.3500         5
  68.4000         9
  68.4500         5
  68.5000         6
  68.5500         3
  68.6000         4
  68.6500         9
  68.7000         2
  68.7500         2
  68.8000         6
  68.8500         8
  68.9000         5
  68.9500         1
  69.0000         3
  69.0500         3
  69.1000         5
  69.1500         6
  69.2000         2
  69.2500         6
  69.3000         3
  69.3500         3
  69.4000         4
  69.4500         4
  69.5000         4
  69.5500         6
  69.6000         9
  69.6500         8
  69.7000         5
  69.7500         1
  69.8000         5
  69.8500         4
  69.9000         3
  69.9500         4
  70.0000         4
  70.0500         6
  70.1000         5
  70.1500         6
  70.2000         7
  70.2500         7
  70.3000         6
  70.3500         5
  70.4000         7
  70.4500         2
  70.5000         5
  70.5500         6
  70.6000         4
  70.6500         7
  70.7000         9
  70.7500        11
  70.8000         9
  70.8500        16
  70.9000        15
  70.9500        13
  71.0000        41
  71.0500        95
  71.1000       133
  71.1500        98
  71.2000        71
  71.2500        60
  71.3000        61
  71.3500        62
  71.4000        35
  71.4500        12
  71.5000        11
  71.5500         4
  71.6000         3
  71.6500        10
  71.7000        10
  71.7500         7
  71.8000         7
  71.8500         6
  71.9000         3
  71.9500         5
  72.0000         4
  72.0500         2
  72.1000         5
  72.1500         4
  72.2000         6
  72.2500         7
  72.3000         2
  72.3500         2
  72.4000         1
  72.4500         2
  72.5000         0
  72.5500         1
  72.6000         4
  72.6500         7
  72.7000         4
  72.7500         2
  72.8000         4
  72.8500        10
  72.9000         7
  72.9500         6
  73.0000         8
  73.0500         5
  73.1000         2
  73.1500         5
  73.2000         8
  73.2500         4
  73.3000         4
  73.3500        10
  73.4000         7
  73.4500         6
  73.5000         4
  73.5500         5
  73.6000         3
  73.6500         6
  73.7000         4
  73.7500         8
  73.8000         4
  73.8500         4
  73.9000         2
  73.9500         3
  74.0000         5
  74.0500         4
  74.1000         7
  74.1500         0
  74.2000        10
  74.2500         4
  74.3000         6
  74.3500         8
  74.4000         5
  74.4500         7
  74.5000         3
  74.5500         4
  74.6000         4
  74.6500         6
  74.7000         5
  74.7500         2
  74.8000         4
  74.8500         3
  74.9000         7
  74.9500         7
  75.0000         9
  75.0500         5
  75.1000         7
  75.1500         3
  75.2000         9
  75.2500         7
  75.3000         8
  75.3500         1
  75.4000         2
  75.4500         4
  75.5000        13
  75.5500         5
  75.6000         7
  75.6500         3
  75.7000         3
  75.7500         6
  75.8000         6
  75.8500         3
  75.9000         4
  75.9500         4
  76.0000         5
  76.0500         7
  76.1000        11
  76.1500         2
  76.2000         6
  76.2500         7
  76.3000         8
  76.3500         6
  76.4000         4
  76.4500         7
  76.5000         9
  76.5500         3
  76.6000         3
  76.6500         3
  76.7000         4
  76.7500         7
  76.8000         5
  76.8500         7
  76.9000         2
  76.9500         3
  77.0000         4
  77.0500         5
  77.1000         5
  77.1500         3
  77.2000         4
  77.2500         2
  77.3000         5
  77.3500         2
  77.4000         3
  77.4500         2
  77.5000         4
  77.5500         6
  77.6000         3
  77.6500         2
  77.7000         5
  77.7500         4
  77.8000         5
  77.8500         5
  77.9000         6
  77.9500         4
  78.0000         4
  78.0500         4
  78.1000         3
  78.1500         6
  78.2000         4
  78.2500         7
  78.3000         5
  78.3500         5
  78.4000         2
  78.4500         8
  78.5000         5
  78.5500         5
  78.6000         9
  78.6500         3
  78.7000         4
  78.7500         3
  78.8000         3
  78.8500         5
  78.9000         5
  78.9500         4
  79.0000        10
  79.0500         1
  79.1000         4
  79.1500         6
  79.2000         3
  79.2500         5
  79.3000         4
  79.3500         1
  79.4000         8
  79.4500        10
  79.5000         7
  79.5500         1
  79.6000         2
  79.6500         6
  79.7000         7
  79.7500         7
  79.8000         2
  79.8500         3
  79.9000         1
  79.9500         3
  80.0000         4
  80.0500         5
  80.1000         2
  80.1500         8
  80.2000         3
  80.2500         2
  80.3000        10
  80.3500         5
  80.4000         7
  80.4500         3
  80.5000         7
  80.5500         7
  80.6000         7
  80.6500         7
  80.7000         4
  80.7500         4
  80.8000         6
  80.8500         1
  80.9000         4
  80.9500         7
  81.0000         7
  81.0500         9
  81.1000         2
  81.1500         4
  81.2000         6
  81.2500         5
  81.3000         2
  81.3500         2
  81.4000         3
  81.4500         5
  81.5000         2
  81.5500         3
  81.6000         3
  81.6500         4
  81.7000         0
  81.7500         8
  81.8000        10
  81.8500         4
  81.9000         4
  81.9500         2
  82.0000         6
  82.0500         2
  82.1000        10
  82.1500         1
  82.2000         4
  82.2500         8
  82.3000         4
  82.3500        10
  82.4000         5
  82.4500         7
  82.5000         6
  82.5500         7
  82.6000         3
  82.6500         5
  82.7000         8
  82.7500         7
  82.8000         3
  82.8500         5
  82.9000         4
  82.9500         8
  83.0000         7
  83.0500         9
  83.1000         4
  83.1500         5
  83.2000         4
  83.2500         8
  83.3000         7
  83.3500         3
  83.4000         4
  83.4500         8
  83.5000         8
  83.5500         4
  83.6000         3
  83.6500         6
  83.7000         4
  83.7500         6
  83.8000        11
  83.8500         2
  83.9000         4
  83.9500         2
  84.0000         4
  84.0500         5
  84.1000         2
  84.1500        10
  84.2000         7
  84.2500         2
  84.3000         6
  84.3500         5
  84.4000         4
  84.4500        14
  84.5000         4
  84.5500         8
  84.6000         3
  84.6500         4
  84.7000        11
  84.7500         5
  84.8000         8
  84.8500         6
  84.9000         6
  84.9500         5
  85.0000         5
  85.0500         5
  85.1000         5
  85.1500         8
  85.2000         5
  85.2500         7
  85.3000         4
  85.3500         8
  85.4000         5
  85.4500         7
  85.5000         8
  85.5500         7
  85.6000         6
  85.6500        11
  85.7000        11
  85.7500        20
  85.8000        34
  85.8500        79
  85.9000       135
  85.9500       153
  86.0000       108
  86.0500        54
  86.1000        40
  86.1500        62
  86.2000        87
  86.2500        61
  86.3000        32
  86.3500        16
  86.4000        17
  86.4500         8
  86.5000         5
  86.5500         5
  86.6000         8
  86.6500         4
  86.7000         7
  86.7500        10
  86.8000        10
  86.8500         8
  86.9000         3
  86.9500        10
  87.0000         7
  87.0500         5
  87.1000         2
  87.1500         6
  87.2000         3
  87.2500        10
  87.3000         2
  87.3500         7
  87.4000         7
  87.4500         7
  87.5000         4
  87.5500         3
  87.6000         8
  87.6500         3
  87.7000         6
  87.7500         4
  87.8000         9
  87.8500         2
  87.9000         4
  87.9500         7
  88.0000         5
  88.0500         7
  88.1000         4
  88.1500         3
  88.2000         4
  88.2500         8
  88.3000         6
  88.3500         3
  88.4000         4
  88.4500         6
  88.5000         6
  88.5500         5
  88.6000         4
  88.6500         4
  88.7000         3
  88.7500         4
  88.8000         4
  88.8500         3
  88.9000         5
  88.9500         5
  89.0000         5
  89.0500         5
  89.1000         4
  89.1500         6
  89.2000         3
  89.2500         5
  89.3000         3
  89.3500         2
  89.4000         9
  89.4500         6
  89.5000         3
  89.5500         3
  89.6000         2
  89.6500         3
  89.7000         1
  89.7500         3
  89.8000         5
  89.8500         2
  89.9000         2
  89.9500         3
  90.0000         5
  90.0500         7
  90.1000         2
  90.1500         4
  90.2000         7
  90.2500         5
  90.3000         6
  90.3500         4
  90.4000         6
  90.4500         4
  90.5000         3
  90.5500         6
  90.6000        15
  90.6500        21
  90.7000        37
  90.7500        41
  90.8000        36
  90.8500        19
  90.9000        13
  90.9500        13
  91.0000        29
  91.0500        31
  91.1000        30
  91.1500        15
  91.2000         7
  91.2500         7
  91.3000        11
  91.3500         9
  91.4000         5
  91.4500         5
  91.5000         4
  91.5500         4
  91.6000         4
  91.6500         4
  91.7000         4
  91.7500         7
  91.8000         3
  91.8500         6
  91.9000         4
  91.9500         3
  92.0000         4
  92.0500         1
  92.1000         7
  92.1500         4
  92.2000         1
  92.2500         3
  92.3000         2
  92.3500         4
  92.4000         8
  92.4500         3
  92.5000         2
  92.5500         3
  92.6000         5
  92.6500         0
  92.7000         9
  92.7500         2
  92.8000         4
  92.8500         5
  92.9000         3
  92.9500         8
  93.0000         2
  93.0500         7
  93.1000         0
  93.1500         1
  93.2000         4
  93.2500         8
  93.3000         4
  93.3500         7
  93.4000         1
  93.4500         6
  93.5000         4
  93.5500         5
  93.6000         5
  93.6500         4
  93.7000         5
  93.7500         5
  93.8000        10
  93.8500         2
  93.9000         5
  93.9500        10
  94.0000         6
  94.0500         2
  94.1000         4
  94.1500         9
  94.2000         6
  94.2500         6
  94.3000         1
  94.3500         6
  94.4000         5
  94.4500         8
  94.5000         2
  94.5500         4
  94.6000         7
  94.6500         4
  94.7000         0
  94.7500         4
  94.8000         2
  94.8500         4
  94.9000         3
  94.9500         8
  95.0000         3
  95.0500         2
  95.1000         2
  95.1500         4
  95.2000        10
  95.2500         1
  95.3000         7
  95.3500         5
  95.4000         4
  95.4500         3
  95.5000         9
  95.5500         9
  95.6000         2
  95.6500         6
  95.7000         8
  95.7500         4
  95.8000         5
  95.8500         1
  95.9000         7
  95.9500         3
  96.0000         4
  96.0500         4
  96.1000         6
  96.1500         1
  96.2000         4
  96.2500         6
  96.3000         3
  96.3500         4
  96.4000         2
  96.4500        12
  96.5000         3
  96.5500         3
  96.6000         4
  96.6500         3
  96.7000         7
  96.7500         4
  96.8000         8
  96.8500         7
  96.9000         3
  96.9500         7
  97.0000         4
  97.0500         5
  97.1000         3
  97.1500         8
  97.2000         5
  97.2500         4
  97.3000         4
  97.3500         5
  97.4000         5
  97.4500         3
  97.5000         6
  97.5500         5
  97.6000         1
  97.6500         4
  97.7000         4
  97.7500         5
  97.8000         7
  97.8500         3
  97.9000         5
  97.9500         6
  98.0000         3
  98.0500         8
  98.1000         3
  98.1500         4
  98.2000         5
  98.2500         4
  98.3000         3
  98.3500         6
  98.4000         3
  98.4500         6
  98.5000         2
  98.5500         4
  98.6000         5
  98.6500        10
  98.7000         4
  98.7500         3
  98.8000         4
  98.8500         4
  98.9000         3
  98.9500         1
  99.0000         2
  99.0500         5
  99.1000         4
  99.1500         5
  99.2000         4
  99.2500         4
  99.3000         5
  99.3500         3
  99.4000         3
  99.4500         4
  99.5000         5
  99.5500         0
  99.6000         3
  99.6500         3
  99.7000         5
  99.7500         4
  99.8000         2
  99.8500         7
  99.9000         5
  99.9500         2
 100.0000         4
 100.0500         4
 100.1000         4
 100.1500         4
 100.2000         5
 100.2500         2
 100.3000         5
 100.3500         5
 100.4000         1
 100.4500         3
 100.5000         7
 100.5500         2
 100.6000         2
 100.6500         4
 100.7000         4
 100.7500         6
 100.8000         7
 100.8500         1
 100.9000         5
 100.9500         6
 101.0000         6
 101.0500         3
 101.1000         3
 101.1500         5
 101.2000         5
 101.2500         4
 101.3000         4
 101.3500         7
 101.4000         6
 101.4500         5
 101.5000         5
 101.5500         5
 101.6000         6
 101.6500         8
 101.7000         2
 101.7500         4
 101.8000         7
 101.8500         4
 101.9000         4
 101.9500         7
 102.0000         3
 102.0500         2
 102.1000         1
 102.1500         5
 102.2000         3
 102.2500         5
 102.3000         5
 102.3500         5
 102.4000         7
 102.4500         4
 102.5000         9
 102.5500         1
 102.6000         5
 102.6500         6
 102.7000         4
 102.7500         4
 102.8000         3
 102.8500         3
 102.9000         2
 102.9500         1
 103.0000         6
 103.0500         3
 103.1000         6
 103.1500         4
 103.2000         6
 103.2500         2
 103.3000         1
 103.3500         8
 103.4000         5
 103.4500         5
 103.5000        12
 103.5500         2
 103.6000         3
 103.6500         5
 103.7000         5
 103.7500         2
 103.8000         3
 103.8500         2
 103.9000         2
 103.9500         2
 104.0000         3
 104.0500         4
 104.1000         2
 104.1500         8
 104.2000        10
 104.2500         4
 104.3000         3
 104.3500         3
 104.4000         3
 104.4500         7
 104.5000         6
 104.5500         2
 104.6000         5
 104.6500         6
 104.7000         6
 104.7500         6
 104.8000         6
 104.8500         4
 104.9000         3
 104.9500         3
 105.0000         2
 105.0500         4
 105.1000         2
 105.1500         4
 105.2000         6
 105.2500         6
 105.3000         4
 105.3500         4
 105.4000         5
 105.4500         4
 105.5000         2
 105.5500         4
 105.6000         1
 105.6500         6
 105.7000         6
 105.7500         5
 105.8000         3
 105.8500         8
 105.9000         4
 105.9500         2
 106.0000         4
 106.0500         7
 106.1000         4
 106.1500         4
 106.2000         4
 106.2500         9
 106.3000         5
 106.3500         7
 106.4000         3
 106.4500         6
 106.5000         4
 106.5500         6
 106.6000         1
 106.6500         2
 106.7000         7
 106.7500         7
 106.8000         1
 106.8500         2
 106.9000         5
 106.9500         7
 107.0000         8
 107.0500         4
 107.1000         3
 107.1500         7
 107.2000         6
 107.2500         5
 107.3000        10
 107.3500         5
 107.4000         1
 107.4500         3
 107.5000         3
 107.5500         3
 107.6000         8
 107.6500         4
 107.7000         3
 107.7500         6
 107.8000         5
 107.8500         3
 107.9000         6
 107.9500         3
 108.0000         4
 108.0500         5
 108.1000         2
 108.1500         7
 108.2000         4
 108.2500         5
 108.3000         2
 108.3500         9
 108.4000         1
 108.4500         3
 108.5000         1
 108.5500         4
 108.6000         3
 108.6500         2
 108.7000         1
 108.7500        10
 108.8000         3
 108.8500         3
 108.9000        10
 108.9500         2
 109.0000         8
 109.0500         4
 109.1000         7
 109.1500         7
 109.2000         5
 109.2500         6
 109.3000         3
 109.3500         6
 109.4000         6
 109.4500         5
 109.5000         4
 109.5500         5
 109.6000         1
 109.6500         2
 109.7000         9
 109.7500         6
 109.8000         6
 109.8500         5
 109.9000         6
 109.9500         8
 110.0000         9
