  10.0000         9
  10.0500         3
  10.1000         8
  10.1500         6
  10.2000         6
  10.2500         9
  10.3000         4
  10.3500        10
  10.4000        11
  10.4500        11
  10.5000         4
  10.5500        11
  10.6000         2
  10.6500         7
  10.7000        10
  10.7500        14
  10.8000         4
  10.8500         7
  10.9000        13
  10.9500         7
  11.0000         5
  11.0500        10
  11.1000         3
  11.1500         9
  11.2000        12
  11.2500         8
  11.3000         4
  11.3500         8
  11.4000         6
  11.4500         5
  11.5000        11
  11.5500         7
  11.6000         8
  11.6500         7
  11.7000         5
  11.7500         5
  11.8000         8
  11.8500        10
  11.9000        10
  11.9500        11
  12.0000         5
  12.0500        10
  12.1000         7
  12.1500         8
  12.2000         6
  12.2500         4
  12.3000         2
  12.3500         3
  12.4000         9
  12.4500         6
  12.5000        11
  12.5500         7
  12.6000         6
  12.6500         5
  12.7000         4
  12.7500         9
  12.8000         5
  12.8500         4
  12.9000         5
  12.9500         4
  13.0000         5
  13.0500         5
  13.1000         8
  13.1500         3
  13.2000         4
  13.2500         6
  13.3000         8
  13.3500         7
  13.4000         6
  13.4500        11
  13.5000         6
  13.5500         3
  13.6000         6
  13.6500         5
  13.7000         9
  13.7500         4
  13.8000         8
  13.8500         8
  13.9000         3
  13.9500         7
  14.0000         3
  14.0500         1
  14.1000         4
  14.1500         7
  14.2000         3
  14.2500         4
  14.3000         3
  14.3500         2
  14.4000         9
  14.4500         3
  14.5000         3
  14.5500         4
  14.6000         5
  14.6500         2
  14.7000         6
  14.7500         9
  14.8000         4
  14.8500         4
  14.9000         1
  14.9500         5
  15.0000         9
  15.0500        10
  15.1000         5
  15.1500         5
  15.2000         5
  15.2500        10
  15.3000         1
  15.3500         4
  15.4000         5
  15.4500         4
  15.5000         5
  15.5500        12
  15.6000         2
  15.6500         5
  15.7000         6
  15.7500         7
  15.8000         4
  15.8500         9
  15.9000         6
  15.9500         7
  16.0000         5
  16.0500         8
  16.1000         4
  16.1500         7
  16.2000         4
  16.2500         6
  16.3000         7
  16.3500         6
  16.4000         5
  16.4500         8
  16.5000         7
  16.5500         9
  16.6000         2
  16.6500         5
  16.7000         6
  16.7500         6
  16.8000         3
  16.8500         5
  16.9000         5
  16.9500         3
  17.0000         7
  17.0500        10
  17.1000         4
  17.1500         5
  17.2000         3
  17.2500         7
  17.3000         2
  17.3500         5
  17.4000        12
  17.4500        10
  17.5000         5
  17.5500         9
  17.6000         7
  17.6500         2
  17.7000         5
  17.7500         3
  17.8000         4
  17.8500         6
  17.9000         4
  17.9500         7
  18.0000         7
  18.0500         9
  18.1000         5
  18.1500         4
  18.2000        11
  18.2500         8
  18.3000         6
  18.3500         4
  18.4000         7
  18.4500         4
  18.5000         5
  18.5500         6
  18.6000         7
  18.6500         4
  18.7000         4
  18.7500         4
  18.8000         7
  18.8500        10
  18.9000         8
  18.9500         9
  19.0000         5
  19.0500         7
  19.1000         2
  19.1500         5
  19.2000         5
  19.2500         3
  19.3000         0
  19.3500         7
  19.4000         6
  19.4500         3
  19.5000         4
  19.5500         2
  19.6000         5
  19.6500         4
  19.7000        12
  19.7500         5
  19.8000        12
  19.8500         6
  19.9000         3
  19.9500         2
  20.0000         7
  20.0500         9
  20.1000         6
  20.1500         2
  20.2000         5
  20.2500         4
  20.3000         4
  20.3500         2
  20.4000         5
  20.4500         4
  20.5000         4
  20.5500         3
  20.6000         6
  20.6500         7
  20.7000         3
  20.7500         8
  20.8000         3
  20.8500         6
  20.9000         7
  20.9500         6
  21.0000         2
  21.0500         4
  21.1000         4
  21.1500         3
  21.2000         7
  21.2500         4
  21.3000         4
  21.3500         7
  21.4000         4
  21.4500        10
  21.5000         6
  21.5500         1
  21.6000         5
  21.6500         5
  21.7000         3
  21.7500         7
  21.8000         4
  21.8500         6
  21.9000         8
  21.9500         4
  22.0000         5
  22.0500         6
  22.1000         5
  22.1500         4
  22.2000         8
  22.2500         9
  22.3000         5
  22.3500        12
  22.4000         5
  22.4500         9
  22.5000         9
  22.5500         4
  22.6000         7
  22.6500         6
  22.7000         4
  22.7500         7
  22.8000         4
  22.8500         5
  22.9000         4
  22.9500         5
  23.0000         4
  23.0500         6
  23.1000         3
  23.1500         3
  23.2000         2
  23.2500         9
  23.3000         7
  23.3500         3
  23.4000         6
  23.4500         3
  23.5000         3
  23.5500         2
  23.6000         3
  23.6500         5
  23.7000         2
  23.7500        10
  23.8000         6
  23.8500         8
  23.9000         2
  23.9500         8
  24.0000         7
  24.0500         6
  24.1000         6
  24.1500         4
  24.2000         3
  24.2500         5
  24.3000        10
  24.3500         6
  24.4000         9
  24.4500         5
  24.5000         4
  24.5500         3
  24.6000        10
  24.6500         9
  24.7000         2
  24.7500         2
  24.8000         3
  24.8500         3
  24.9000         5
  24.9500         8
  25.0000         3
  25.0500         5
  25.1000         4
  25.1500         5
  25.2000         7
  25.2500         8
  25.3000         2
  25.3500         3
  25.4000         5
  25.4500         7
  25.5000         7
  25.5500         2
  25.6000         7
  25.6500         2
  25.7000         4
  25.7500         6
  25.8000         8
  25.8500         5
  25.9000         6
  25.9500         4
  26.0000         3
  26.0500         7
  26.1000         5
  26.1500         3
  26.2000         5
  26.2500         4
  26.3000         6
  26.3500         2
  26.4000         5
  26.4500         2
  26.5000         2
  26.5500        10
  26.6000         2
  26.6500         4
  26.7000         6
  26.7500         3
  26.8000         4
  26.8500         3
  26.9000         6
  26.9500         5
  27.0000         4
  27.0500         5
  27.1000         1
  27.1500         5
  27.2000         5
  27.2500         7
  27.3000         4
  27.3500         7
  27.4000        10
  27.4500         4
  27.5000         5
  27.5500        12
  27.6000         9
  27.6500         2
  27.7000         7
  27.7500         7
  27.8000         5
  27.8500         4
  27.9000         2
  27.9500         6
  28.0000         7
  28.0500         4
  28.1000         7
  28.1500        10
  28.2000         2
  28.2500         8
  28.3000         3
  28.3500         6
  28.4000         6
  28.4500         4
  28.5000         5
  28.5500         3
  28.6000        10
  28.6500         4
  28.7000         4
  28.7500         4
  28.8000         2
  28.8500         1
  28.9000         5
  28.9500         6
  29.0000         2
  29.0500         1
  29.1000         3
  29.1500         6
  29.2000         2
  29.2500         4
  29.3000         3
  29.3500         7
  29.4000         7
  29.4500        12
  29.5000        14
  29.5500        13
  29.6000         7
  29.6500         6
  29.7000         7
  29.7500         4
  29.8000         5
  29.8500         6
  29.9000         8
  29.9500         1
  30.0000         3
  30.0500         5
  30.1000         5
  30.1500         2
  30.2000         4
  30.2500         1
  30.3000         7
  30.3500         4
  30.4000        10
  30.4500         6
  30.5000         6
  30.5500         0
  30.6000         8
  30.6500         6
  30.7000         8
  30.7500         3
  30.8000         3
  30.8500         5
  30.9000         7
  30.9500         4
  31.0000         4
  31.0500         2
  31.1000         6
  31.1500         5
  31.2000         1
  31.2500         2
  31.3000         3
  31.3500         8
  31.4000         4
  31.4500         5
  31.5000         4
  31.5500        10
  31.6000         8
  31.6500         4
  31.7000         5
  31.7500         2
  31.8000         2
  31.8500         5
  31.9000         5
  31.9500         5
  32.0000         5
  32.0500         4
  32.1000         6
  32.1500         6
  32.2000         2
  32.2500         7
  32.3000         3
  32.3500         5
  32.4000         6
  32.4500         3
  32.5000         5
  32.5500         5
  32.6000         7
  32.6500         9
  32.7000         9
  32.7500         4
  32.8000         2
  32.8500         1
  32.9000         7
  32.9500         4
  33.0000         6
  33.0500         4
  33.1000         3
  33.1500         4
  33.2000         5
  33.2500         5
  33.3000         5
  33.3500         3
  33.4000         4
  33.4500         8
  33.5000         6
  33.5500         8
  33.6000         6
  33.6500        12
  33.7000         5
  33.7500         9
  33.8000         4
  33.8500         7
  33.9000         3
  33.9500         5
  34.0000         1
  34.0500         8
  34.1000         1
  34.1500        10
  34.2000         6
  34.2500         6
  34.3000         5
  34.3500         5
  34.4000         5
  34.4500         7
  34.5000         3
  34.5500         4
  34.6000         4
  34.6500         3
  34.7000        10
  34.7500         4
  34.8000         8
  34.8500         5
  34.9000         7
  34.9500         4
  35.0000         4
  35.0500         4
  35.1000         2
  35.1500         2
  35.2000         3
  35.2500         2
  35.3000         5
  35.3500         5
  35.4000         5
  35.4500         0
  35.5000         4
  35.5500         3
  35.6000         4
  35.6500         7
  35.7000         5
  35.7500         3
  35.8000         7
  35.8500         4
  35.9000         5
  35.9500         4
  36.0000         4
  36.0500         5
  36.1000         4
  36.1500         4
  36.2000         4
  36.2500         3
  36.3000         7
  36.3500         3
  36.4000         7
  36.4500         4
  36.5000         3
  36.5500         7
  36.6000         8
  36.6500         1
  36.7000         7
  36.7500         3
  36.8000         4
  36.8500         5
  36.9000         1
  36.9500         6
  37.0000         6
  37.0500         6
  37.1000         8
  37.1500        15
  37.2000        10
  37.2500        10
  37.3000        11
  37.3500        14
  37.4000        12
  37.4500         4
  37.5000         7
  37.5500         5
  37.6000         0
  37.6500         5
  37.7000         8
  37.7500         4
  37.8000         5
  37.8500         6
  37.9000         5
  37.9500         3
  38.0000         5
  38.0500         3
  38.1000         2
  38.1500         8
  38.2000         6
  38.2500        10
  38.3000         4
  38.3500         2
  38.4000         7
  38.4500         5
  38.5000         8
  38.5500         5
  38.6000         6
  38.6500         5
  38.7000         9
  38.7500         5
  38.8000         7
  38.8500         4
  38.9000         7
  38.9500         3
  39.0000         9
  39.0500         5
  39.1000         2
  39.1500         4
  39.2000        10
  39.2500         8
  39.3000         3
  39.3500         6
  39.4000         7
  39.4500         7
  39.5000        10
  39.5500         3
  39.6000         8
  39.6500         4
  39.7000         4
  39.7500         6
  39.8000         6
  39.8500        12
  39.9000         3
  39.9500         6
  40.0000        10
  40.0500         3
  40.1000         6
  40.1500         7
  40.2000         5
  40.2500         6
  40.3000         4
  40.3500         8
  40.4000         5
  40.4500         6
  40.5000         3
  40.5500         6
  40.6000         7
  40.6500         7
  40.7000         3
  40.7500         4
  40.8000         8
  40.8500         6
  40.9000         9
  40.9500        12
  41.0000         8
  41.0500         5
  41.1000         6
  41.1500         8
  41.2000         8
  41.2500         5
  41.3000         3
  41.3500        11
  41.4000         6
  41.4500         6
  41.5000         3
  41.5500         7
  41.6000         2
  41.6500         2
  41.7000         7
  41.7500         3
  41.8000         5
  41.8500         7
  41.9000        12
  41.9500         8
  42.0000         6
  42.0500        10
  42.1000        11
  42.1500         4
  42.2000        15
  42.2500        17
  42.3000        14
  42.3500        10
  42.4000         8
  42.4500         8
  42.5000        20
  42.5500        12
  42.6000        15
  42.6500        21
  42.7000        14
  42.7500        15
  42.8000        22
  42.8500        21
  42.9000        22
  42.9500        23
  43.0000        23
  43.0500        31
  43.1000        34
  43.1500        34
  43.2000        39
  43.2500        55
  43.3000        64
  43.3500        96
  43.4000       124
  43.4500       210
  43.5000       284
  43.5500       441
  43.6000       641
  43.6500       820
  43.7000       949
  43.7500       932
  43.8000       832
  43.8500       706
  43.9000       497
  43.9500       328
  44.0000       193
  44.0500       135
  44.1000        81
  44.1500        69
  44.2000        46
  44.2500        55
  44.3000        35
  44.3500        30
  44.4000        34
  44.4500        22
  44.5000        31
  44.5500        16
  44.6000        16
  44.6500        16
  44.7000        19
  44.7500         8
  44.8000        11
  44.8500         3
  44.9000        10
  44.9500        10
  45.0000         5
  45.0500         7
  45.1000         6
  45.1500         8
  45.2000         9
  45.2500        18
  45.3000         7
  45.3500         7
  45.4000        13
  45.4500        13
  45.5000         8
  45.5500        11
  45.6000         4
  45.6500         7
  45.7000        10
  45.7500         8
  45.8000         5
  45.8500         3
  45.9000        10
  45.9500        12
  46.0000         7
  46.0500         7
  46.1000         9
  46.1500         9
  46.2000         9
  46.2500         8
  46.3000        12
  46.3500         6
  46.4000         6
  46.4500         8
  46.5000         7
  46.5500         9
  46.6000         2
  46.6500         7
  46.7000         4
  46.7500         4
  46.8000         5
  46.8500         5
  46.9000         8
  46.9500         6
  47.0000         8
  47.0500        11
  47.1000         7
  47.1500         4
  47.2000         3
  47.2500        10
  47.3000         7
  47.3500         5
  47.4000         7
  47.4500         8
  47.5000         8
  47.5500         3
  47.6000         5
  47.6500        11
  47.7000         5
  47.7500         9
  47.8000         4
  47.8500         5
  47.9000        11
  47.9500         7
  48.0000         7
  48.0500         7
  48.1000         4
  48.1500         4
  48.2000         3
  48.2500         6
  48.3000         8
  48.3500         4
  48.4000         5
  48.4500        10
  48.5000        10
  48.5500         5
  48.6000         9
  48.6500         7
  48.7000         9
  48.7500        12
  48.8000         9
  48.8500         9
  48.9000         8
  48.9500         7
  49.0000        10
  49.0500         6
  49.1000        10
  49.1500        11
  49.2000        11
  49.2500         9
  49.3000         9
  49.3500        11
  49.4000         9
  49.4500         9
  49.5000        15
  49.5500        11
  49.6000         8
  49.6500        11
  49.7000         9
  49.7500        20
  49.8000        13
  49.8500        18
  49.9000         8
  49.9500        18
  50.0000        11
  50.0500        21
  50.1000        12
  50.1500        17
  50.2000        21
  50.2500        29
  50.3000        29
  50.3500        26
  50.4000        35
  50.4500        43
  50.5000        60
  50.5500        71
  50.6000        98
  50.6500       114
  50.7000       157
  50.7500       204
  50.8000       234
  50.8500       277
  50.9000       304
  50.9500       273
  51.0000       258
  51.0500       242
  51.1000       205
  51.1500       175
  51.2000       131
  51.2500        85
  51.3000        74
  51.3500        53
  51.4000        41
  51.4500        42
  51.5000        34
  51.5500        15
  51.6000        22
  51.6500        15
  51.7000        16
  51.7500        18
  51.8000        13
  51.8500        14
  51.9000        10
  51.9500         9
  52.0000        11
  52.0500         7
  52.1000        11
  52.1500        11
  52.2000        14
  52.2500         2
  52.3000         4
  52.3500        12
  52.4000        10
  52.4500         6
  52.5000         9
  52.5500         7
  52.6000         2
  52.6500         8
  52.7000         5
  52.7500         6
  52.8000         8
  52.8500         6
  52.9000         5
  52.9500         3
  53.0000         5
  53.0500         3
  53.1000         8
  53.1500         5
  53.2000        14
  53.2500        10
  53.3000        10
  53.3500         5
  53.4000         5
  53.4500         7
  53.5000         4
  53.5500         5
  53.6000        10
  53.6500         7
  53.7000         5
  53.7500         4
  53.8000         5
  53.8500        12
  53.9000         7
  53.9500         7
  54.0000         6
  54.0500         6
  54.1000         2
  54.1500         4
  54.2000         2
  54.2500         4
  54.3000         6
  54.3500         2
  54.4000         9
  54.4500         4
  54.5000         8
  54.5500         4
  54.6000         8
  54.6500         5
  54.7000         4
  54.7500         2
  54.8000         9
  54.8500         4
  54.9000         3
  54.9500         1
  55.0000         3
  55.0500         6
  55.1000         2
  55.1500         3
  55.2000         5
  55.2500         4
  55.3000         0
  55.3500         4
  55.4000         6
  55.4500         5
  55.5000         3
  55.5500         9
  55.6000         7
  55.6500         4
  55.7000         5
  55.7500         4
  55.8000        10
  55.8500         8
  55.9000        10
  55.9500         5
  56.0000         2
  56.0500         9
  56.1000         4
  56.1500         8
  56.2000         4
  56.2500         5
  56.3000         5
  56.3500         7
  56.4000         3
  56.4500         3
  56.5000         4
  56.5500         2
  56.6000         2
  56.6500         8
  56.7000         4
  56.7500         7
  56.8000         4
  56.8500         6
  56.9000         5
  56.9500         4
  57.0000         6
  57.0500         5
  57.1000         8
  57.1500         7
  57.2000         4
  57.2500         8
  57.3000         4
  57.3500         6
  57.4000         8
  57.4500         6
  57.5000         3
  57.5500         7
  57.6000         6
  57.6500         7
  57.7000         3
  57.7500         5
  57.8000         9
  57.8500         4
  57.9000         6
  57.9500         4
  58.0000         7
  58.0500         8
  58.1000         5
  58.1500         3
  58.2000         4
  58.2500         6
  58.3000         4
  58.3500         7
  58.4000         2
  58.4500         4
  58.5000         6
  58.5500         4
  58.6000         5
  58.6500         2
  58.7000         2
  58.7500         5
  58.8000         3
  58.8500         4
  58.9000         5
  58.9500         4
  59.0000         5
  59.0500         7
  59.1000         4
  59.1500         4
  59.2000         5
  59.2500         5
  59.3000         6
  59.3500         8
  59.4000         4
  59.4500         9
  59.5000         9
  59.5500         4
  59.6000         8
  59.6500         5
  59.7000         4
  59.7500         3
  59.8000         3
  59.8500         5
  59.9000         2
  59.9500         6
  60.0000         5
  60.0500         4
  60.1000         8
  60.1500         4
  60.2000         5
  60.2500         6
  60.3000         4
  60.3500         8
  60.4000         6
  60.4500         1
  60.5000         4
  60.5500         3
  60.6000        11
  60.6500         4
  60.7000         6
  60.7500         4
  60.8000         6
  60.8500         4
  60.9000         3
  60.9500         3
  61.0000         5
  61.0500         0
  61.1000         5
  61.1500         5
  61.2000         8
  61.2500         1
  61.3000         3
  61.3500         3
  61.4000         4
  61.4500         5
  61.5000         5
  61.5500         3
  61.6000         5
  61.6500         3
  61.7000         8
  61.7500         7
  61.8000         2
  61.8500         4
  61.9000         6
  61.9500         1
  62.0000         3
  62.0500         3
  62.1000        10
  62.1500         6
  62.2000         3
  62.2500         4
  62.3000         5
  62.3500         6
  62.4000         6
  62.4500         5
  62.5000         5
  62.5500         7
  62.6000         8
  62.6500         6
  62.7000         7
  62.7500         4
  62.8000        10
  62.8500         6
  62.9000         8
  62.9500        10
  63.0000         8
  63.0500         5
  63.1000         3
  63.1500         8
  63.2000         7
  63.2500         4
  63.3000         3
  63.3500         5
  63.4000         6
  63.4500         4
  63.5000        12
  63.5500         6
  63.6000         4
  63.6500         7
  63.7000         2
  63.7500         2
  63.8000         6
  63.8500         4
  63.9000         5
  63.9500         4
  64.0000         7
  64.0500         7
  64.1000         5
  64.1500         4
  64.2000         3
  64.2500         6
  64.3000         2
  64.3500         5
  64.4000         4
  64.4500         3
  64.5000         5
  64.5500         7
  64.6000         7
  64.6500         3
  64.7000         3
  64.7500         5
  64.8000         7
  64.8500         2
  64.9000         3
  64.9500         4
  65.0000         5
  65.0500         8
  65.1000         3
  65.1500         6
  65.2000         5
  65.2500         3
  65.3000         4
  65.3500         6
  65.4000         5
  65.4500         9
  65.5000         6
  65.5500         7
  65.6000         4
  65.6500         7
  65.7000         5
  65.7500         5
  65.8000         6
  65.8500         7
  65.9000         3
  65.9500         6
  66.0000         4
  66.0500         2
  66.1000         6
  66.1500         4
  66.2000         3
  66.2500         5
  66.3000         1
  66.3500         3
  66.4000         6
  66.4500         6
  66.5000         2
  66.5500         2
  66.6000         2
  66.6500         4
  66.7000         5
  66.7500         7
  66.8000         5
  66.8500        12
  66.9000         6
  66.9500         7
  67.0000         2
  67.0500         7
  67.1000         2
  67.1500         5
  67.2000         3
  67.2500         8
  67.3000         4
  67.3500         5
  67.4000         8
  67.4500        10
  67.5000         1
  67.5500         5
  67.6000         4
  67.6500         5
  67.7000         9
  67.7500         4
  67.8000         6
  67.8500         4
  67.9000         1
  67.9500         4
  68.0000         5
  68.0500         3
  68.1000         5
  68.1500         6
  68.2000         4
  68.2500         2
  68.3000         7
  68.3500         5
  68.4000         3
  68.4500         5
  68.5000         5
  68.5500         4
  68.6000         3
  68.6500         2
  68.7000         5
  68.7500         6
  68.8000         5
  68.8500         2
  68.9000         4
  68.9500         1
  69.0000         5
  69.0500         7
  69.1000         3
  69.1500         3
  69.2000         4
  69.2500         3
  69.3000         8
  69.3500         6
  69.4000         9
  69.4500         5
  69.5000        10
  69.5500         6
  69.6000         4
  69.6500         3
  69.7000         8
  69.7500         3
  69.8000         8
  69.8500         6
  69.9000         6
  69.9500         8
  70.0000         4
  70.0500         5
  70.1000         2
  70.1500         6
  70.2000         3
  70.2500         5
  70.3000         3
  70.3500         9
  70.4000         4
  70.4500         6
  70.5000         1
  70.5500         2
  70.6000         8
  70.6500         9
  70.7000         6
  70.7500         4
  70.8000        13
  70.8500         6
  70.9000         4
  70.9500         5
  71.0000         4
  71.0500         5
  71.1000         7
  71.1500         4
  71.2000         9
  71.2500         4
  71.3000         2
  71.3500         4
  71.4000         3
  71.4500         8
  71.5000         2
  71.5500         8
  71.6000         6
  71.6500         4
  71.7000         8
  71.7500         4
  71.8000         3
  71.8500         8
  71.9000         2
  71.9500         8
  72.0000         3
  72.0500         9
  72.1000         4
  72.1500         7
  72.2000         4
  72.2500         4
  72.3000         9
  72.3500        11
  72.4000         9
  72.4500         7
  72.5000         5
  72.5500         8
  72.6000         8
  72.6500         6
  72.7000         5
  72.7500         8
  72.8000         8
  72.8500         8
  72.9000         9
  72.9500         7
  73.0000         6
  73.0500         7
  73.1000        11
  73.1500         8
  73.2000         4
  73.2500         6
  73.3000        12
  73.3500         5
  73.4000         7
  73.4500         9
  73.5000         3
  73.5500         8
  73.6000         5
  73.6500         5
  73.7000        12
  73.7500         4
  73.8000         8
  73.8500         9
  73.9000        16
  73.9500        11
  74.0000        18
  74.0500        12
  74.1000        18
  74.1500        14
  74.2000        15
  74.2500        14
  74.3000        23
  74.3500        12
  74.4000        26
  74.4500        32
  74.5000        44
  74.5500        52
  74.6000        58
  74.6500        81
  74.7000       105
  74.7500       110
  74.8000       107
  74.8500       126
  74.9000       130
  74.9500       121
  75.0000       115
  75.0500       113
  75.1000        94
  75.1500        64
  75.2000        72
  75.2500        55
  75.3000        44
  75.3500        33
  75.4000        32
  75.4500        24
  75.5000        18
  75.5500        13
  75.6000        16
  75.6500        23
  75.7000        15
  75.7500        11
  75.8000        13
  75.8500        15
  75.9000        12
  75.9500         6
  76.0000        11
  76.0500         5
  76.1000         3
  76.1500         5
  76.2000         7
  76.2500        11
  76.3000        12
  76.3500         5
  76.4000         5
  76.4500         6
  76.5000         4
  76.5500         7
  76.6000         5
  76.6500         6
  76.7000         7
  76.7500         4
  76.8000         2
  76.8500         9
  76.9000         9
  76.9500         4
  77.0000         4
  77.0500         4
  77.1000         6
  77.1500         3
  77.2000         9
  77.2500         7
  77.3000        11
  77.3500         4
  77.4000        11
  77.4500         4
  77.5000         7
  77.5500         9
  77.6000         4
  77.6500         3
  77.7000         3
  77.7500         5
  77.8000         6
  77.8500         4
  77.9000         5
  77.9500         7
  78.0000         6
  78.0500         5
  78.1000         3
  78.1500         8
  78.2000         4
  78.2500         8
  78.3000         5
  78.3500         8
  78.4000         8
  78.4500         3
  78.5000         8
  78.5500         4
  78.6000         5
  78.6500         2
  78.7000         2
  78.7500         4
  78.8000         7
  78.8500         3
  78.9000         5
  78.9500         5
  79.0000         2
  79.0500         6
  79.1000        10
  79.1500         8
  79.2000         5
  79.2500         5
  79.3000         4
  79.3500         5
  79.4000         2
  79.4500         9
  79.5000         3
  79.5500         2
  79.6000        10
  79.6500         7
  79.7000         0
  79.7500         6
  79.8000         3
  79.8500         3
  79.9000         4
  79.9500         5
  80.0000         7
  80.0500         3
  80.1000         5
  80.1500         1
  80.2000         3
  80.2500         6
  80.3000         5
  80.3500         4
  80.4000         8
  80.4500         6
  80.5000         7
  80.5500         3
  80.6000         5
  80.6500         1
  80.7000         2
  80.7500         5
  80.8000         5
  80.8500         3
  80.9000         6
  80.9500         8
  81.0000         3
  81.0500         5
  81.1000        13
  81.1500         5
  81.2000         3
  81.2500         6
  81.3000         3
  81.3500        12
  81.4000         4
  81.4500         9
  81.5000         3
  81.5500         4
  81.6000         6
  81.6500         7
  81.7000         3
  81.7500         4
  81.8000         3
  81.8500         7
  81.9000        11
  81.9500         2
  82.0000         6
  82.0500         6
  82.1000         6
  82.1500         5
  82.2000         7
  82.2500         9
  82.3000         5
  82.3500         7
  82.4000         1
  82.4500         4
  82.5000         3
  82.5500         4
  82.6000         7
  82.6500         5
  82.7000         4
  82.7500         5
  82.8000         3
  82.8500        11
  82.9000         5
  82.9500         2
  83.0000         6
  83.0500         6
  83.1000         6
  83.1500         6
  83.2000         9
  83.2500         1
  83.3000         9
  83.3500         5
  83.4000         5
  83.4500         8
  83.5000        10
  83.5500         5
  83.6000         6
  83.6500         4
  83.7000        10
  83.7500         4
  83.8000         3
  83.8500         6
  83.9000         3
  83.9500         4
  84.0000         4
  84.0500         5
  84.1000         4
  84.1500         4
  84.2000         3
  84.2500         7
  84.3000         9
  84.3500         3
  84.4000         9
  84.4500         9
  84.5000         2
  84.5500         4
  84.6000         9
  84.6500         7
  84.7000         2
  84.7500         0
  84.8000         5
  84.8500         6
  84.9000         9
  84.9500         9
  85.0000         6
  85.0500         6
  85.1000         4
  85.1500         7
  85.2000         4
  85.2500         4
  85.3000         5
  85.3500         7
  85.4000         1
  85.4500         3
  85.5000         4
  85.5500         2
  85.6000         7
  85.6500         7
  85.7000         8
  85.7500         3
  85.8000         7
  85.8500         6
  85.9000         3
  85.9500         3
  86.0000         4
  86.0500         3
  86.1000         5
  86.1500         5
  86.2000         4
  86.2500         8
  86.3000         7
  86.3500         7
  86.4000         3
  86.4500         3
  86.5000         6
  86.5500         5
  86.6000         6
  86.6500         8
  86.7000         3
  86.7500         6
  86.8000         8
  86.8500         4
  86.9000         7
  86.9500         4
  87.0000         6
  87.0500         5
  87.1000         9
  87.1500         9
  87.2000         7
  87.2500         7
  87.3000         2
  87.3500         7
  87.4000         7
  87.4500         9
  87.5000         4
  87.5500         3
  87.6000         5
  87.6500         4
  87.7000         9
  87.7500         6
  87.8000         6
  87.8500         3
  87.9000         6
  87.9500         6
  88.0000         7
  88.0500         8
  88.1000         9
  88.1500         5
  88.2000         5
  88.2500         6
  88.3000         6
  88.3500         4
  88.4000         6
  88.4500         2
  88.5000         8
  88.5500         7
  88.6000        13
  88.6500         7
  88.7000         8
  88.7500         7
  88.8000        12
  88.8500        13
  88.9000         2
  88.9500         5
  89.0000         5
  89.0500         7
  89.1000         5
  89.1500         7
  89.2000         5
  89.2500        14
  89.3000         6
  89.3500        11
  89.4000         8
  89.4500         9
  89.5000         4
  89.5500         9
  89.6000         6
  89.6500        11
  89.7000        16
  89.7500        14
  89.8000        12
  89.8500        13
  89.9000        13
  89.9500        18
  90.0000        18
  90.0500        19
  90.1000        19
  90.1500        21
  90.2000        33
  90.2500        35
  90.3000        30
  90.3500        37
  90.4000        44
  90.4500        47
  90.5000        50
  90.5500        72
  90.6000        52
  90.6500        86
  90.7000        77
  90.7500        95
  90.8000       105
  90.8500       113
  90.9000        88
  90.9500       106
  91.0000        91
  91.0500        91
  91.1000        69
  91.1500       105
  91.2000        94
  91.2500        72
  91.3000        79
  91.3500        67
  91.4000        47
  91.4500        39
  91.5000        35
  91.5500        28
  91.6000        27
  91.6500        17
  91.7000        21
  91.7500        17
  91.8000        22
  91.8500        14
  91.9000        11
  91.9500        14
  92.0000        17
  92.0500        10
  92.1000         8
  92.1500         8
  92.2000        12
  92.2500        13
  92.3000        12
  92.3500         6
  92.4000         8
  92.4500         8
  92.5000         4
  92.5500         8
  92.6000        10
  92.6500         9
  92.7000         9
  92.7500         4
  92.8000         5
  92.8500        14
  92.9000         8
  92.9500         7
  93.0000         8
  93.0500         6
  93.1000         8
  93.1500         7
  93.2000         4
  93.2500         5
  93.3000         8
  93.3500         6
  93.4000         6
  93.4500        13
  93.5000         4
  93.5500         9
  93.6000         5
  93.6500        10
  93.7000         3
  93.7500         7
  93.8000        11
  93.8500         7
  93.9000         6
  93.9500         5
  94.0000         4
  94.0500         7
  94.1000         9
  94.1500        11
  94.2000         7
  94.2500        14
  94.3000         6
  94.3500         4
  94.4000         7
  94.4500        10
  94.5000         2
  94.5500         6
  94.6000         4
  94.6500         9
  94.7000         5
  94.7500        10
  94.8000        10
  94.8500         6
  94.9000         5
  94.9500         7
  95.0000         8
  95.0500         6
  95.1000        10
  95.1500         3
  95.2000         6
  95.2500         6
  95.3000        11
  95.3500        10
  95.4000        12
  95.4500        10
  95.5000         9
  95.5500         7
  95.6000        14
  95.6500        15
  95.7000        17
  95.7500        26
  95.8000        24
  95.8500        31
  95.9000        34
  95.9500        24
  96.0000        26
  96.0500        32
  96.1000        31
  96.1500        28
  96.2000        27
  96.2500        44
  96.3000        22
  96.3500        39
  96.4000        34
  96.4500        28
  96.5000        26
  96.5500        28
  96.6000        22
  96.6500        23
  96.7000        21
  96.7500        13
  96.8000        12
  96.8500        13
  96.9000        11
  96.9500        12
  97.0000         6
  97.0500        18
  97.1000         6
  97.1500         5
  97.2000         8
  97.2500         4
  97.3000        10
  97.3500         3
  97.4000        11
  97.4500         8
  97.5000         3
  97.5500         8
  97.6000         7
  97.6500         5
  97.7000         5
  97.7500         9
  97.8000        10
  97.8500         9
  97.9000         4
  97.9500         9
  98.0000         8
  98.0500         7
  98.1000         8
  98.1500         8
  98.2000         6
  98.2500         2
  98.3000         8
  98.3500         3
  98.4000         3
  98.4500         5
  98.5000         4
  98.5500         4
  98.6000         8
  98.6500         4
  98.7000         8
  98.7500         3
  98.8000         4
  98.8500         8
  98.9000         7
  98.9500         7
  99.0000        10
  99.0500         5
  99.1000         3
  99.1500         8
  99.2000         3
  99.2500         1
  99.3000         5
  99.3500        10
  99.4000         3
  99.4500         8
  99.5000         3
  99.5500         5
  99.6000         4
  99.6500         9
  99.7000         4
  99.7500         4
  99.8000         4
  99.8500         3
  99.9000         5
  99.9500         3
 100.0000         3
 100.0500         6
 100.1000         4
 100.1500         6
 100.2000         7
 100.2500         2
 100.3000        10
 100.3500         4
 100.4000         8
 100.4500         4
 100.5000         7
 100.5500         8
 100.6000         9
 100.6500         4
 100.7000         5
 100.7500         7
 100.8000         5
 100.8500         4
 100.9000        10
 100.9500         5
 101.0000         6
 101.0500         9
 101.1000         6
 101.1500         3
 101.2000         5
 101.2500         6
 101.3000         7
 101.3500         3
 101.4000         1
 101.4500         5
 101.5000         5
 101.5500         1
 101.6000         7
 101.6500         5
 101.7000         3
 101.7500         3
 101.8000         1
 101.8500         3
 101.9000         9
 101.9500         6
 102.0000         3
 102.0500         3
 102.1000         6
 102.1500         3
 102.2000         5
 102.2500         7
 102.3000         2
 102.3500         6
 102.4000         4
 102.4500         6
 102.5000        12
 102.5500         5
 102.6000         7
 102.6500         1
 102.7000         4
 102.7500         8
 102.8000         3
 102.8500         5
 102.9000         8
 102.9500         5
 103.0000         8
 103.0500         3
 103.1000         6
 103.1500         8
 103.2000         4
 103.2500         4
 103.3000         5
 103.3500         6
 103.4000         4
 103.4500         1
 103.5000         5
 103.5500         4
 103.6000         8
 103.6500         5
 103.7000         9
 103.7500         3
 103.8000         8
 103.8500        10
 103.9000         4
 103.9500         7
 104.0000         5
 104.0500        11
 104.1000         3
 104.1500         7
 104.2000         6
 104.2500         2
 104.3000         7
 104.3500         5
 104.4000         6
 104.4500         7
 104.5000         9
 104.5500         5
 104.6000         7
 104.6500        10
 104.7000         4
 104.7500         3
 104.8000         3
 104.8500         7
 104.9000         9
 104.9500         5
 105.0000         4
 105.0500         6
 105.1000         5
 105.1500         7
 105.2000         4
 105.2500         2
 105.3000         4
 105.3500        12
 105.4000         2
 105.4500         0
 105.5000         5
 105.5500         6
 105.6000         6
 105.6500         4
 105.7000        11
 105.7500         9
 105.8000         8
 105.8500        11
 105.9000         4
 105.9500         6
 106.0000         7
 106.0500         4
 106.1000         8
 106.1500         3
 106.2000         3
 106.2500         4
 106.3000         4
 106.3500         1
 106.4000         3
 106.4500         9
 106.5000         7
 106.5500         2
 106.6000         4
 106.6500         8
 106.7000         7
 106.7500         5
 106.8000         3
 106.8500         6
 106.9000         9
 106.9500         3
 107.0000         5
 107.0500         0
 107.1000         4
 107.1500         5
 107.2000         9
 107.2500         5
 107.3000         5
 107.3500         4
 107.4000         7
 107.4500         7
 107.5000         8
 107.5500         5
 107.6000         3
 107.6500         5
 107.7000         4
 107.7500        12
 107.8000         8
 107.8500         3
 107.9000         7
 107.9500         4
 108.0000         9
 108.0500         4
 108.1000         6
 108.1500         9
 108.2000         5
 108.2500         7
 108.3000         6
 108.3500         4
 108.4000         2
 108.4500         1
 108.5000         5
 108.5500         2
 108.6000         7
 108.6500         5
 108.7000         2
 108.7500         3
 108.8000         4
 108.8500         6
 108.9000         3
 108.9500         5
 109.0000         7
 109.0500         7
 109.1000         4
 109.1500        10
 109.2000         7
 109.2500         6
 109.3000        12
 109.3500         7
 109.4000         8
 109.4500         7
 109.5000         1
 109.5500        12
 109.6000         5
 109.6500         4
 109.7000         6
 109.7500         4
 109.8000        11
 109.8500         2
 109.9000         4
 109.9500         5
 110.0000         3
