  10.0000         9
  10.0500         8
  10.1000         9
  10.1500        11
  10.2000         6
  10.2500         9
  10.3000         8
  10.3500         6
  10.4000        11
  10.4500         6
  10.5000         9
  10.5500         5
  10.6000         7
  10.6500         3
  10.7000         6
  10.7500         9
  10.8000         5
  10.8500         6
  10.9000         2
  10.9500         9
  11.0000        10
  11.0500         8
  11.1000        10
  11.1500         3
  11.2000         7
  11.2500         8
  11.3000         8
  11.3500         9
  11.4000        10
  11.4500        11
  11.5000         3
  11.5500         5
  11.6000         5
  11.6500         6
  11.7000         7
  11.7500         7
  11.8000         6
  11.8500         7
  11.9000         4
  11.9500         4
  12.0000         7
  12.0500        11
  12.1000         7
  12.1500         5
  12.2000         3
  12.2500         4
  12.3000        12
  12.3500         8
  12.4000         4
  12.4500         5
  12.5000         8
  12.5500        10
  12.6000        15
  12.6500        11
  12.7000        11
  12.7500         7
  12.8000         6
  12.8500         7
  12.9000         6
  12.9500         7
  13.0000         8
  13.0500         6
  13.1000         5
  13.1500         6
  13.2000         7
  13.2500         7
  13.3000         5
  13.3500         8
  13.4000        11
  13.4500        10
  13.5000        12
  13.5500        13
  13.6000         4
  13.6500         5
  13.7000        12
  13.7500         9
  13.8000        11
  13.8500         9
  13.9000         4
  13.9500         7
  14.0000         7
  14.0500         7
  14.1000         9
  14.1500         9
  14.2000         2
  14.2500         3
  14.3000         9
  14.3500        13
  14.4000         5
  14.4500         5
  14.5000         4
  14.5500         7
  14.6000         6
  14.6500        11
  14.7000         6
  14.7500        13
  14.8000         6
  14.8500         9
  14.9000         8
  14.9500         7
  15.0000         5
  15.0500         8
  15.1000         9
  15.1500         9
  15.2000         7
  15.2500         8
  15.3000         7
  15.3500         9
  15.4000         8
  15.4500        11
  15.5000         4
  15.5500         3
  15.6000         4
  15.6500         2
  15.7000        11
  15.7500        11
  15.8000        10
  15.8500         6
  15.9000        11
  15.9500        12
  16.0000         4
  16.0500        12
  16.1000         6
  16.1500        11
  16.2000         4
  16.2500        13
  16.3000        13
  16.3500         3
  16.4000         9
  16.4500        13
  16.5000         8
  16.5500         5
  16.6000         5
  16.6500        10
  16.7000         8
  16.7500         8
  16.8000        13
  16.8500         6
  16.9000         3
  16.9500         7
  17.0000         5
  17.0500         8
  17.1000         7
  17.1500         9
  17.2000        11
  17.2500         6
  17.3000         3
  17.3500        14
  17.4000         7
  17.4500        10
  17.5000         4
  17.5500         5
  17.6000         8
  17.6500         6
  17.7000         7
  17.7500         7
  17.8000        10
  17.8500        12
  17.9000         9
  17.9500         5
  18.0000        11
  18.0500         8
  18.1000        12
  18.1500        12
  18.2000         5
  18.2500         8
  18.3000         6
  18.3500         4
  18.4000         5
  18.4500         7
  18.5000         5
  18.5500         5
  18.6000         5
  18.6500         9
  18.7000         4
  18.7500         6
  18.8000         6
  18.8500         9
  18.9000         8
  18.9500         6
  19.0000         6
  19.0500         6
  19.1000         6
  19.1500        11
  19.2000         8
  19.2500         7
  19.3000         3
  19.3500         9
  19.4000         8
  19.4500         6
  19.5000         8
  19.5500         9
  19.6000         6
  19.6500         7
  19.7000         4
  19.7500         8
  19.8000         4
  19.8500         6
  19.9000         7
  19.9500        12
  20.0000         6
  20.0500         5
  20.1000         8
  20.1500         6
  20.2000         4
  20.2500         7
  20.3000         6
  20.3500        10
  20.4000         6
  20.4500         3
  20.5000         6
  20.5500         4
  20.6000         3
  20.6500         2
  20.7000         5
  20.7500        10
  20.8000         5
  20.8500         8
  20.9000         6
  20.9500         6
  21.0000         3
  21.0500         7
  21.1000        15
  21.1500         9
  21.2000         2
  21.2500         3
  21.3000         8
  21.3500        10
  21.4000         9
  21.4500         7
  21.5000         2
  21.5500         1
  21.6000        12
  21.6500         3
  21.7000         7
  21.7500         7
  21.8000         8
  21.8500         6
  21.9000         3
  21.9500         6
  22.0000         7
  22.0500         4
  22.1000         7
  22.1500         7
  22.2000         5
  22.2500         4
  22.3000         3
  22.3500         7
  22.4000         4
  22.4500        11
  22.5000         5
  22.5500        10
  22.6000         8
  22.6500         5
  22.7000         1
  22.7500         5
  22.8000        13
  22.8500         7
  22.9000        11
  22.9500         8
  23.0000         8
  23.0500         5
  23.1000         6
  23.1500         5
  23.2000         4
  23.2500         6
  23.3000         3
  23.3500         5
  23.4000         8
  23.4500         9
  23.5000        11
  23.5500         5
  23.6000        11
  23.6500         4
  23.7000         6
  23.7500         9
  23.8000         3
  23.8500         5
  23.9000         5
  23.9500         4
  24.0000         6
  24.0500         9
  24.1000         5
  24.1500         5
  24.2000         8
  24.2500         7
  24.3000         8
  24.3500        11
  24.4000        10
  24.4500         7
  24.5000         2
  24.5500         4
  24.6000         6
  24.6500         6
  24.7000         9
  24.7500         3
  24.8000         1
  24.8500        11
  24.9000         5
  24.9500         4
  25.0000         9
  25.0500        15
  25.1000         7
  25.1500         5
  25.2000         6
  25.2500         7
  25.3000         4
  25.3500         8
  25.4000         4
  25.4500         7
  25.5000        12
  25.5500         5
  25.6000         7
  25.6500         8
  25.7000         6
  25.7500         8
  25.8000         5
  25.8500         7
  25.9000         8
  25.9500         8
  26.0000         2
  26.0500         7
  26.1000         3
  26.1500         5
  26.2000         6
  26.2500         5
  26.3000         4
  26.3500         9
  26.4000         7
  26.4500         4
  26.5000         5
  26.5500         5
  26.6000         7
  26.6500        10
  26.7000         6
  26.7500         1
  26.8000         6
  26.8500         7
  26.9000         4
  26.9500        12
  27.0000         9
  27.0500         4
  27.1000         4
  27.1500         5
  27.2000         5
  27.2500         6
  27.3000        14
  27.3500        11
  27.4000         8
  27.4500         7
  27.5000         8
  27.5500         7
  27.6000         7
  27.6500         9
  27.7000         7
  27.7500         8
  27.8000         5
  27.8500         7
  27.9000         5
  27.9500         1
  28.0000         9
  28.0500         5
  28.1000         8
  28.1500         5
  28.2000         8
  28.2500         9
  28.3000        10
  28.3500         7
  28.4000         3
  28.4500         8
  28.5000         6
  28.5500         8
  28.6000         9
  28.6500         6
  28.7000         4
  28.7500        11
  28.8000         7
  28.8500         5
  28.9000         5
  28.9500        10
  29.0000         7
  29.0500         6
  29.1000         4
  29.1500         4
  29.2000         7
  29.2500         3
  29.3000         7
  29.3500         4
  29.4000        10
  29.4500         5
  29.5000         4
  29.5500        10
  29.6000         3
  29.6500        11
  29.7000         9
  29.7500         7
  29.8000        10
  29.8500         8
  29.9000         5
  29.9500         6
  30.0000         7
  30.0500         7
  30.1000         4
  30.1500         7
  30.2000         4
  30.2500         9
  30.3000         1
  30.3500         6
  30.4000         3
  30.4500        10
  30.5000         2
  30.5500         5
  30.6000         8
  30.6500         4
  30.7000         5
  30.7500         3
  30.8000         3
  30.8500         9
  30.9000         6
  30.9500         6
  31.0000         9
  31.0500         6
  31.1000        10
  31.1500         8
  31.2000         3
  31.2500        13
  31.3000         5
  31.3500         7
  31.4000         9
  31.4500        10
  31.5000         5
  31.5500         7
  31.6000         4
  31.6500        10
  31.7000        11
  31.7500         4
  31.8000         4
  31.8500        10
  31.9000         5
  31.9500         8
  32.0000         7
  32.0500         9
  32.1000         5
  32.1500         7
  32.2000         8
  32.2500         1
  32.3000         8
  32.3500         6
  32.4000         6
  32.4500         9
  32.5000         3
  32.5500         2
  32.6000         7
  32.6500         7
  32.7000         5
  32.7500         8
  32.8000         7
  32.8500         8
  32.9000         1
  32.9500         9
  33.0000         4
  33.0500         3
  33.1000         4
  33.1500        10
  33.2000         4
  33.2500         8
  33.3000        11
  33.3500         2
  33.4000        12
  33.4500         9
  33.5000         5
  33.5500        13
  33.6000         6
  33.6500         5
  33.7000         1
  33.7500         6
  33.8000         5
  33.8500         7
  33.9000         7
  33.9500        11
  34.0000         6
  34.0500         5
  34.1000         1
  34.1500         3
  34.2000         7
  34.2500         4
  34.3000        10
  34.3500         9
  34.4000         5
  34.4500         5
  34.5000         4
  34.5500         6
  34.6000         7
  34.6500         5
  34.7000         8
  34.7500         4
  34.8000         7
  34.8500         7
  34.9000         6
  34.9500        10
  35.0000         2
  35.0500         4
  35.1000         6
  35.1500         9
  35.2000        12
  35.2500         7
  35.3000         4
  35.3500         6
  35.4000         4
  35.4500         6
  35.5000         7
  35.5500         5
  35.6000         6
  35.6500         4
  35.7000         8
  35.7500         6
  35.8000         7
  35.8500         6
  35.9000        12
  35.9500         8
  36.0000         3
  36.0500        13
  36.1000        11
  36.1500         8
  36.2000         5
  36.2500        12
  36.3000         6
  36.3500         9
  36.4000         8
  36.4500         4
  36.5000         7
  36.5500         4
  36.6000         7
  36.6500         9
  36.7000         7
  36.7500        11
  36.8000         6
  36.8500         7
  36.9000         8
  36.9500         4
  37.0000         9
  37.0500         4
  37.1000         4
  37.1500         4
  37.2000         9
  37.2500         3
  37.3000         9
  37.3500        11
  37.4000         4
  37.4500        11
  37.5000        13
  37.5500         9
  37.6000         9
  37.6500         9
  37.7000         7
  37.7500        10
  37.8000        12
  37.8500         8
  37.9000         3
  37.9500         9
  38.0000        11
  38.0500        14
  38.1000         4
  38.1500         5
  38.2000         8
  38.2500        10
  38.3000         6
  38.3500         4
  38.4000        11
  38.4500         6
  38.5000         7
  38.5500        11
  38.6000        16
  38.6500         4
  38.7000        10
  38.7500         7
  38.8000        11
  38.8500         5
  38.9000        11
  38.9500         6
  39.0000         9
  39.0500         6
  39.1000         7
  39.1500         9
  39.2000         8
  39.2500         5
  39.3000         8
  39.3500         8
  39.4000        12
  39.4500         5
  39.5000        11
  39.5500         7
  39.6000         7
  39.6500        12
  39.7000         5
  39.7500         9
  39.8000         5
  39.8500        13
  39.9000         6
  39.9500         4
  40.0000         6
  40.0500         7
  40.1000         8
  40.1500        12
  40.2000         9
  40.2500         7
  40.3000         3
  40.3500        14
  40.4000        12
  40.4500         9
  40.5000         9
  40.5500        14
  40.6000         5
  40.6500         4
  40.7000         9
  40.7500         6
  40.8000         4
  40.8500         5
  40.9000         9
  40.9500         6
  41.0000         6
  41.0500         8
  41.1000        10
  41.1500         7
  41.2000         7
  41.2500         4
  41.3000         7
  41.3500        13
  41.4000        10
  41.4500        12
  41.5000         9
  41.5500        10
  41.6000        12
  41.6500         4
  41.7000         9
  41.7500        11
  41.8000         9
  41.8500        14
  41.9000        21
  41.9500         9
  42.0000        13
  42.0500         7
  42.1000         9
  42.1500        17
  42.2000        14
  42.2500        16
  42.3000        11
  42.3500        11
  42.4000        12
  42.4500        11
  42.5000         6
  42.5500        12
  42.6000        18
  42.6500        18
  42.7000        27
  42.7500        10
  42.8000        13
  42.8500        14
  42.9000        26
  42.9500        21
  43.0000        16
  43.0500        18
  43.1000        20
  43.1500        29
  43.2000        27
  43.2500        23
  43.3000        35
  43.3500        46
  43.4000        40
  43.4500        47
  43.5000        56
  43.5500        69
  43.6000        79
  43.6500       108
  43.7000       137
  43.7500       173
  43.8000       278
  43.8500       396
  43.9000       445
  43.9500       645
  44.0000       733
  44.0500       864
  44.1000       838
  44.1500       729
  44.2000       583
  44.2500       468
  44.3000       321
  44.3500       199
  44.4000       139
  44.4500        87
  44.5000        71
  44.5500        58
  44.6000        43
  44.6500        34
  44.7000        23
  44.7500        27
  44.8000        27
  44.8500        16
  44.9000        31
  44.9500        18
  45.0000        20
  45.0500        12
  45.1000         9
  45.1500        21
  45.2000        15
  45.2500        13
  45.3000        19
  45.3500        15
  45.4000        18
  45.4500        11
  45.5000        13
  45.5500         6
  45.6000         5
  45.6500         9
  45.7000        13
  45.7500        14
  45.8000        14
  45.8500        17
  45.9000         9
  45.9500        13
  46.0000        12
  46.0500        14
  46.1000         5
  46.1500         8
  46.2000         7
  46.2500        10
  46.3000         7
  46.3500         6
  46.4000         7
  46.4500         5
  46.5000         8
  46.5500         4
  46.6000        13
  46.6500         9
  46.7000        15
  46.7500         4
  46.8000        14
  46.8500         4
  46.9000         2
  46.9500        12
  47.0000        15
  47.0500        10
  47.1000         8
  47.1500         9
  47.2000        15
  47.2500        13
  47.3000        13
  47.3500         9
  47.4000        12
  47.4500        12
  47.5000        15
  47.5500         4
  47.6000        11
  47.6500         6
  47.7000        10
  47.7500        10
  47.8000         5
  47.8500         7
  47.9000         7
  47.9500         3
  48.0000         9
  48.0500        11
  48.1000         9
  48.1500        10
  48.2000        11
  48.2500         7
  48.3000         8
  48.3500         4
  48.4000         5
  48.4500         7
  48.5000         8
  48.5500         5
  48.6000         9
  48.6500        12
  48.7000         5
  48.7500        14
  48.8000         9
  48.8500        11
  48.9000         5
  48.9500         6
  49.0000         8
  49.0500         8
  49.1000         9
  49.1500         9
  49.2000        13
  49.2500        14
  49.3000        10
  49.3500        12
  49.4000        19
  49.4500         8
  49.5000         8
  49.5500        11
  49.6000         7
  49.6500         9
  49.7000         8
  49.7500         8
  49.8000        14
  49.8500        16
  49.9000        17
  49.9500         8
  50.0000        13
  50.0500        22
  50.1000        15
  50.1500        10
  50.2000        12
  50.2500        22
  50.3000        16
  50.3500        22
  50.4000        20
  50.4500        15
  50.5000        18
  50.5500        25
  50.6000        21
  50.6500        24
  50.7000        34
  50.7500        33
  50.8000        55
  50.8500        69
  50.9000        79
  50.9500        92
  51.0000       101
  51.0500       162
  51.1000       162
  51.1500       187
  51.2000       225
  51.2500       225
  51.3000       272
  51.3500       246
  51.4000       264
  51.4500       223
  51.5000       180
  51.5500       162
  51.6000       121
  51.6500       103
  51.7000        82
  51.7500        39
  51.8000        55
  51.8500        48
  51.9000        36
  51.9500        21
  52.0000        29
  52.0500        13
  52.1000        10
  52.1500        17
  52.2000        19
  52.2500        11
  52.3000        16
  52.3500         9
  52.4000         9
  52.4500        13
  52.5000         9
  52.5500        13
  52.6000        14
  52.6500         8
  52.7000         7
  52.7500        12
  52.8000        10
  52.8500         8
  52.9000        10
  52.9500         6
  53.0000         5
  53.0500        10
  53.1000         5
  53.1500        13
  53.2000         6
  53.2500         5
  53.3000         2
  53.3500        16
  53.4000         4
  53.4500         6
  53.5000         6
  53.5500        10
  53.6000         8
  53.6500         5
  53.7000         9
  53.7500         8
  53.8000         8
  53.8500         7
  53.9000         8
  53.9500         8
  54.0000         4
  54.0500        11
  54.1000         7
  54.1500        12
  54.2000         6
  54.2500        11
  54.3000        10
  54.3500         5
  54.4000         8
  54.4500         6
  54.5000         5
  54.5500        10
  54.6000        11
  54.6500        11
  54.7000         5
  54.7500         5
  54.8000         9
  54.8500         7
  54.9000         6
  54.9500        10
  55.0000         8
  55.0500        11
  55.1000         4
  55.1500         8
  55.2000         7
  55.2500         6
  55.3000         8
  55.3500         7
  55.4000         5
  55.4500         9
  55.5000         6
  55.5500         8
  55.6000         3
  55.6500         4
  55.7000         8
  55.7500        10
  55.8000        10
  55.8500        11
  55.9000         7
  55.9500         9
  56.0000        12
  56.0500        11
  56.1000         8
  56.1500        13
  56.2000         5
  56.2500         7
  56.3000         7
  56.3500         4
  56.4000         6
  56.4500         8
  56.5000         9
  56.5500         8
  56.6000        12
  56.6500        13
  56.7000        11
  56.7500         8
  56.8000         4
  56.8500         3
  56.9000        10
  56.9500        11
  57.0000         9
  57.0500         5
  57.1000         6
  57.1500         6
  57.2000         4
  57.2500         5
  57.3000         8
  57.3500         4
  57.4000         6
  57.4500         6
  57.5000         7
  57.5500         9
  57.6000         4
  57.6500         3
  57.7000         5
  57.7500        10
  57.8000        11
  57.8500         6
  57.9000         5
  57.9500        10
  58.0000        10
  58.0500         9
  58.1000         9
  58.1500         7
  58.2000         9
  58.2500         2
  58.3000         6
  58.3500        11
  58.4000         9
  58.4500        10
  58.5000         5
  58.5500        12
  58.6000         1
  58.6500         3
  58.7000         6
  58.7500         8
  58.8000        10
  58.8500         5
  58.9000         5
  58.9500         4
  59.0000         6
  59.0500         8
  59.1000         5
  59.1500         7
  59.2000         6
  59.2500        12
  59.3000         3
  59.3500         7
  59.4000         6
  59.4500         4
  59.5000        10
  59.5500         8
  59.6000         5
  59.6500         9
  59.7000         6
  59.7500         5
  59.8000         5
  59.8500         2
  59.9000         7
  59.9500         8
  60.0000         5
  60.0500         8
  60.1000         3
  60.1500         6
  60.2000         7
  60.2500         6
  60.3000         4
  60.3500        11
  60.4000         5
  60.4500         9
  60.5000         6
  60.5500         7
  60.6000         5
  60.6500         6
  60.7000        11
  60.7500         7
  60.8000         7
  60.8500         5
  60.9000        11
  60.9500         9
  61.0000         5
  61.0500         6
  61.1000        12
  61.1500         3
  61.2000        10
  61.2500         6
  61.3000         3
  61.3500         9
  61.4000         4
  61.4500         9
  61.5000         6
  61.5500         4
  61.6000         9
  61.6500         8
  61.7000         8
  61.7500        11
  61.8000         7
  61.8500         7
  61.9000         5
  61.9500         2
  62.0000        11
  62.0500         3
  62.1000         9
  62.1500         5
  62.2000         7
  62.2500         7
  62.3000         7
  62.3500         6
  62.4000         7
  62.4500         7
  62.5000         6
  62.5500        10
  62.6000        12
  62.6500         7
  62.7000         4
  62.7500         8
  62.8000         4
  62.8500         9
  62.9000        13
  62.9500         9
  63.0000         9
  63.0500        10
  63.1000        10
  63.1500        12
  63.2000         8
  63.2500         8
  63.3000        10
  63.3500         7
  63.4000         6
  63.4500         5
  63.5000         5
  63.5500         2
  63.6000         7
  63.6500         7
  63.7000         8
  63.7500         5
  63.8000         8
  63.8500        11
  63.9000         6
  63.9500         6
  64.0000         6
  64.0500         6
  64.1000         6
  64.1500         8
  64.2000         9
  64.2500        11
  64.3000         8
  64.3500         6
  64.4000        10
  64.4500        13
  64.5000         3
  64.5500        12
  64.6000         5
  64.6500         9
  64.7000         9
  64.7500        10
  64.8000         9
  64.8500         6
  64.9000         6
  64.9500         7
  65.0000        11
  65.0500         4
  65.1000         1
  65.1500         5
  65.2000         9
  65.2500        12
  65.3000        12
  65.3500        11
  65.4000         7
  65.4500        10
  65.5000         5
  65.5500        12
  65.6000         5
  65.6500         8
  65.7000        10
  65.7500         7
  65.8000        11
  65.8500         7
  65.9000         5
  65.9500        11
  66.0000         7
  66.0500         8
  66.1000         4
  66.1500         8
  66.2000         7
  66.2500         2
  66.3000        10
  66.3500         6
  66.4000         5
  66.4500         5
  66.5000         2
  66.5500         5
  66.6000         6
  66.6500         8
  66.7000        11
  66.7500         7
  66.8000         7
  66.8500         5
  66.9000         9
  66.9500         5
  67.0000         2
  67.0500         9
  67.1000        10
  67.1500         8
  67.2000         5
  67.2500        10
  67.3000        10
  67.3500        11
  67.4000         4
  67.4500         7
  67.5000         5
  67.5500         8
  67.6000         4
  67.6500         7
  67.7000         3
  67.7500         8
  67.8000         5
  67.8500         2
  67.9000         6
  67.9500         5
  68.0000        13
  68.0500         7
  68.1000         8
  68.1500         3
  68.2000        14
  68.2500         7
  68.3000        14
  68.3500         7
  68.4000        10
  68.4500         5
  68.5000         2
  68.5500         8
  68.6000         6
  68.6500         5
  68.7000         7
  68.7500         4
  68.8000         7
  68.8500         6
  68.9000         5
  68.9500         7
  69.0000         7
  69.0500         9
  69.1000         9
  69.1500         3
  69.2000         8
  69.2500         4
  69.3000         6
  69.3500        11
  69.4000         7
  69.4500         5
  69.5000         8
  69.5500         4
  69.6000        10
  69.6500         6
  69.7000         6
  69.7500         8
  69.8000        11
  69.8500         8
  69.9000        10
  69.9500         5
  70.0000         4
  70.0500         4
  70.1000        10
  70.1500         8
  70.2000        11
  70.2500         9
  70.3000        10
  70.3500        10
  70.4000        11
  70.4500         8
  70.5000         3
  70.5500         6
  70.6000        12
  70.6500         8
  70.7000        10
  70.7500         6
  70.8000         7
  70.8500         1
  70.9000         5
  70.9500         5
  71.0000         8
  71.0500         6
  71.1000        11
  71.1500        10
  71.2000        12
  71.2500         6
  71.3000         7
  71.3500         2
  71.4000         9
  71.4500         6
  71.5000         7
  71.5500         5
  71.6000         6
  71.6500         9
  71.7000        13
  71.7500         4
  71.8000         9
  71.8500        11
  71.9000        10
  71.9500        10
  72.0000         9
  72.0500         4
  72.1000         7
  72.1500        16
  72.2000         7
  72.2500         9
  72.3000         6
  72.3500         6
  72.4000        10
  72.4500         9
  72.5000        12
  72.5500         8
  72.6000        13
  72.6500         8
  72.7000        11
  72.7500        11
  72.8000         5
  72.8500         8
  72.9000         6
  72.9500         8
  73.0000        13
  73.0500         5
  73.1000         9
  73.1500         5
  73.2000        11
  73.2500         5
  73.3000        12
  73.3500         5
  73.4000         8
  73.4500        12
  73.5000         3
  73.5500        12
  73.6000         9
  73.6500        16
  73.7000         9
  73.7500        10
  73.8000         2
  73.8500        11
  73.9000         8
  73.9500         6
  74.0000         8
  74.0500         4
  74.1000         9
  74.1500        12
  74.2000         8
  74.2500         8
  74.3000         7
  74.3500        19
  74.4000        13
  74.4500        19
  74.5000        13
  74.5500        15
  74.6000        18
  74.6500        15
  74.7000        20
  74.7500        16
  74.8000        35
  74.8500        39
  74.9000        30
  74.9500        28
  75.0000        45
  75.0500        55
  75.1000        48
  75.1500        48
  75.2000        88
  75.2500        76
  75.3000        75
  75.3500       108
  75.4000        88
  75.4500       100
  75.5000        95
  75.5500       115
  75.6000       111
  75.6500        88
  75.7000        80
  75.7500        74
  75.8000        63
  75.8500        64
  75.9000        41
  75.9500        37
  76.0000        38
  76.0500        36
  76.1000        25
  76.1500        25
  76.2000        26
  76.2500        15
  76.3000        22
  76.3500        10
  76.4000         9
  76.4500         5
  76.5000         8
  76.5500        10
  76.6000        11
  76.6500        14
  76.7000         4
  76.7500         6
  76.8000         9
  76.8500         7
  76.9000        12
  76.9500        18
  77.0000        13
  77.0500         9
  77.1000        10
  77.1500        10
  77.2000         9
  77.2500         9
  77.3000         5
  77.3500         6
  77.4000         7
  77.4500        16
  77.5000        16
  77.5500         9
  77.6000        12
  77.6500        10
  77.7000        15
  77.7500         8
  77.8000         7
  77.8500         7
  77.9000        14
  77.9500        10
  78.0000         7
  78.0500         8
  78.1000         4
  78.1500         5
  78.2000        12
  78.2500         7
  78.3000        13
  78.3500        10
  78.4000        13
  78.4500        11
  78.5000         6
  78.5500        14
  78.6000        11
  78.6500        10
  78.7000         7
  78.7500         4
  78.8000         4
  78.8500         8
  78.9000        10
  78.9500         7
  79.0000        10
  79.0500         8
  79.1000        10
  79.1500        13
  79.2000        10
  79.2500         3
  79.3000         6
  79.3500         3
  79.4000         7
  79.4500         6
  79.5000         5
  79.5500         5
  79.6000         8
  79.6500         6
  79.7000         7
  79.7500         9
  79.8000        10
  79.8500         8
  79.9000         8
  79.9500         6
  80.0000        12
  80.0500        10
  80.1000         9
  80.1500         6
  80.2000         6
  80.2500         5
  80.3000         9
  80.3500        10
  80.4000         5
  80.4500        11
  80.5000         6
  80.5500         7
  80.6000        12
  80.6500        11
  80.7000         8
  80.7500        10
  80.8000         8
  80.8500         7
  80.9000         9
  80.9500         8
  81.0000         8
  81.0500         5
  81.1000         5
  81.1500         5
  81.2000        10
  81.2500         9
  81.3000        10
  81.3500         9
  81.4000         7
  81.4500        15
  81.5000         9
  81.5500         8
  81.6000         8
  81.6500         5
  81.7000         5
  81.7500         9
  81.8000        12
  81.8500        10
  81.9000        12
  81.9500         5
  82.0000         4
  82.0500         7
  82.1000         8
  82.1500         3
  82.2000         7
  82.2500         4
  82.3000        10
  82.3500         7
  82.4000         4
  82.4500         8
  82.5000        15
  82.5500        10
  82.6000        10
  82.6500         2
  82.7000         7
  82.7500         5
  82.8000         6
  82.8500         9
  82.9000         7
  82.9500         6
  83.0000         6
  83.0500         8
  83.1000        11
  83.1500        11
  83.2000        12
  83.2500         7
  83.3000         6
  83.3500         5
  83.4000         8
  83.4500         6
  83.5000        11
  83.5500         6
  83.6000         9
  83.6500         7
  83.7000         5
  83.7500        11
  83.8000        12
  83.8500         9
  83.9000         6
  83.9500         4
  84.0000         7
  84.0500         9
  84.1000         8
  84.1500         7
  84.2000         3
  84.2500        11
  84.3000         8
  84.3500        10
  84.4000         7
  84.4500         9
  84.5000        11
  84.5500         5
  84.6000        11
  84.6500         6
  84.7000         6
  84.7500        13
  84.8000         7
  84.8500         9
  84.9000        12
  84.9500         6
  85.0000         8
  85.0500         6
  85.1000         7
  85.1500        12
  85.2000        11
  85.2500         5
  85.3000        10
  85.3500         9
  85.4000         8
  85.4500         6
  85.5000         8
  85.5500        10
  85.6000         8
  85.6500         7
  85.7000         8
  85.7500         7
  85.8000         7
  85.8500         8
  85.9000        11
  85.9500         7
  86.0000         6
  86.0500        11
  86.1000         9
  86.1500        10
  86.2000        11
  86.2500        12
  86.3000        11
  86.3500        10
  86.4000        10
  86.4500        12
  86.5000         6
  86.5500         9
  86.6000        10
  86.6500         7
  86.7000         6
  86.7500         8
  86.8000         6
  86.8500        11
  86.9000        10
  86.9500         9
  87.0000         9
  87.0500         9
  87.1000         5
  87.1500        12
  87.2000         6
  87.2500        10
  87.3000         8
  87.3500         9
  87.4000         8
  87.4500         7
  87.5000         7
  87.5500         4
  87.6000         8
  87.6500         9
  87.7000         9
  87.7500         8
  87.8000         7
  87.8500         6
  87.9000         6
  87.9500        13
  88.0000        15
  88.0500        13
  88.1000         7
  88.1500         9
  88.2000         2
  88.2500        13
  88.3000        10
  88.3500        11
  88.4000         7
  88.4500         6
  88.5000        15
  88.5500        13
  88.6000         9
  88.6500         9
  88.7000        11
  88.7500         8
  88.8000        12
  88.8500         9
  88.9000        11
  88.9500         8
  89.0000         5
  89.0500         8
  89.1000        17
  89.1500        18
  89.2000         2
  89.2500        10
  89.3000         5
  89.3500        10
  89.4000        10
  89.4500         8
  89.5000        11
  89.5500         7
  89.6000         7
  89.6500        10
  89.7000         6
  89.7500        13
  89.8000         5
  89.8500        11
  89.9000        13
  89.9500        14
  90.0000         6
  90.0500        13
  90.1000         9
  90.1500         8
  90.2000        13
  90.2500        11
  90.3000         6
  90.3500        10
  90.4000        14
  90.4500        11
  90.5000        18
  90.5500        12
  90.6000        12
  90.6500        13
  90.7000        24
  90.7500        26
  90.8000        25
  90.8500        15
  90.9000        27
  90.9500        22
  91.0000        44
  91.0500        38
  91.1000        41
  91.1500        48
  91.2000        57
  91.2500        58
  91.3000        68
  91.3500        59
  91.4000        76
  91.4500        73
  91.5000        92
  91.5500        81
  91.6000       103
  91.6500        92
  91.7000        79
  91.7500        77
  91.8000        95
  91.8500        78
  91.9000        99
  91.9500        79
  92.0000        72
  92.0500        82
  92.1000        65
  92.1500        49
  92.2000        50
  92.2500        48
  92.3000        43
  92.3500        32
  92.4000        30
  92.4500        42
  92.5000        27
  92.5500        20
  92.6000        19
  92.6500        22
  92.7000        18
  92.7500        15
  92.8000        19
  92.8500        18
  92.9000        22
  92.9500        20
  93.0000        18
  93.0500        12
  93.1000        10
  93.1500        11
  93.2000        10
  93.2500         9
  93.3000        15
  93.3500         9
  93.4000         8
  93.4500        18
  93.5000        15
  93.5500         8
  93.6000        11
  93.6500        15
  93.7000         6
  93.7500         9
  93.8000         9
  93.8500         8
  93.9000         9
  93.9500         7
  94.0000         9
  94.0500         5
  94.1000        13
  94.1500        14
  94.2000         5
  94.2500         9
  94.3000        10
  94.3500         8
  94.4000         9
  94.4500         6
  94.5000        14
  94.5500         6
  94.6000         6
  94.6500         8
  94.7000         7
  94.7500        10
  94.8000        11
  94.8500        11
  94.9000         5
  94.9500        12
  95.0000         9
  95.0500         6
  95.1000        12
  95.1500         9
  95.2000         8
  95.2500         7
  95.3000         9
  95.3500         9
  95.4000        13
  95.4500        10
  95.5000        15
  95.5500        11
  95.6000         7
  95.6500        14
  95.7000         5
  95.7500        15
  95.8000        10
  95.8500        10
  95.9000        15
  95.9500        10
  96.0000        16
  96.0500        12
  96.1000        11
  96.1500         4
  96.2000        21
  96.2500        14
  96.3000        12
  96.3500         9
  96.4000        14
  96.4500         9
  96.5000        12
  96.5500        15
  96.6000        20
  96.6500        35
  96.7000        21
  96.7500        25
  96.8000        28
  96.8500        31
  96.9000        25
  96.9500        37
  97.0000        35
  97.0500        38
  97.1000        41
  97.1500        35
  97.2000        39
  97.2500        36
  97.3000        30
  97.3500        43
  97.4000        32
  97.4500        22
  97.5000        25
  97.5500        31
  97.6000        20
  97.6500        25
  97.7000        13
  97.7500        13
  97.8000         8
  97.8500        16
  97.9000        12
  97.9500        16
  98.0000        16
  98.0500        14
  98.1000         9
  98.1500         7
  98.2000         7
  98.2500        12
  98.3000        12
  98.3500        11
  98.4000        14
  98.4500        12
  98.5000         7
  98.5500         9
  98.6000         7
  98.6500        10
  98.7000        16
  98.7500         2
  98.8000         7
  98.8500         9
  98.9000         5
  98.9500         8
  99.0000         6
  99.0500        12
  99.1000         8
  99.1500        10
  99.2000         3
  99.2500         7
  99.3000         7
  99.3500         4
  99.4000        12
  99.4500         6
  99.5000        12
  99.5500        15
  99.6000        10
  99.6500         8
  99.7000        12
  99.7500        13
  99.8000        10
  99.8500        12
  99.9000        12
  99.9500         8
 100.0000         7
 100.0500         9
 100.1000         6
 100.1500         7
 100.2000         7
 100.2500        10
 100.3000         7
 100.3500         7
 100.4000        11
 100.4500        10
 100.5000         6
 100.5500         8
 100.6000         7
 100.6500         9
 100.7000         2
 100.7500        14
 100.8000         3
 100.8500         3
 100.9000         9
 100.9500         7
 101.0000        14
 101.0500         8
 101.1000         8
 101.1500         7
 101.2000         6
 101.2500         7
 101.3000         8
 101.3500         8
 101.4000         6
 101.4500         5
 101.5000        10
 101.5500        15
 101.6000         7
 101.6500         7
 101.7000         9
 101.7500         7
 101.8000         3
 101.8500        10
 101.9000         5
 101.9500        13
 102.0000         7
 102.0500         7
 102.1000         8
 102.1500         6
 102.2000         5
 102.2500         7
 102.3000         8
 102.3500        11
 102.4000         7
 102.4500        11
 102.5000         7
 102.5500        16
 102.6000         7
 102.6500        10
 102.7000        14
 102.7500         5
 102.8000         8
 102.8500         7
 102.9000        10
 102.9500        12
 103.0000        15
 103.0500        14
 103.1000         7
 103.1500         4
 103.2000         5
 103.2500         6
 103.3000        10
 103.3500         6
 103.4000         4
 103.4500         9
 103.5000        10
 103.5500         6
 103.6000         7
 103.6500         7
 103.7000         6
 103.7500         9
 103.8000         8
 103.8500        11
 103.9000         9
 103.9500         5
 104.0000         6
 104.0500        14
 104.1000        10
 104.1500         7
 104.2000         4
 104.2500         8
 104.3000         9
 104.3500         8
 104.4000         5
 104.4500         3
 104.5000         5
 104.5500         5
 104.6000         6
 104.6500         8
 104.7000        10
 104.7500         5
 104.8000         8
 104.8500         6
 104.9000         9
 104.9500         3
 105.0000         5
 105.0500         8
 105.1000         7
 105.1500         3
 105.2000         9
 105.2500         8
 105.3000         9
 105.3500         4
 105.4000         9
 105.4500         5
 105.5000         7
 105.5500        12
 105.6000        15
 105.6500         6
 105.7000        12
 105.7500        10
 105.8000         5
 105.8500         7
 105.9000         5
 105.9500         4
 106.0000         5
 106.0500         7
 106.1000         6
 106.1500         8
 106.2000        10
 106.2500         9
 106.3000        16
 106.3500         9
 106.4000         7
 106.4500         6
 106.5000        10
 106.5500        13
 106.6000         5
 106.6500         5
 106.7000         9
 106.7500         3
 106.8000         9
 106.8500        10
 106.9000        15
 106.9500         8
 107.0000        10
 107.0500         9
 107.1000        11
 107.1500         8
 107.2000         5
 107.2500        13
 107.3000        11
 107.3500         7
 107.4000        11
 107.4500         8
 107.5000        10
 107.5500         6
 107.6000         8
 107.6500         7
 107.7000         5
 107.7500         9
 107.8000        13
 107.8500        10
 107.9000         9
 107.9500        12
 108.0000         5
 108.0500         8
 108.1000         7
 108.1500         6
 108.2000         6
 108.2500        16
 108.3000         4
 108.3500         9
 108.4000         5
 108.4500         8
 108.5000        11
 108.5500         7
 108.6000        14
 108.6500         8
 108.7000         8
 108.7500        12
 108.8000         4
 108.8500        11
 108.9000        10
 108.9500         9
 109.0000        11
 109.0500         8
 109.1000         7
 109.1500         7
 109.2000         9
 109.2500        10
 109.3000         7
 109.3500        12
 109.4000        10
 109.4500         9
 109.5000        12
 109.5500         3
 109.6000         7
 109.6500         8
 109.7000         3
 109.7500        10
 109.8000        12
 109.8500         7
 109.9000         8
 109.9500         5
 110.0000        14
