  10.0000        12
  10.0500         7
  10.1000        11
  10.1500         8
  10.2000         8
  10.2500         6
  10.3000        12
  10.3500        10
  10.4000         9
  10.4500         9
  10.5000        11
  10.5500        10
  10.6000         7
  10.6500         9
  10.7000         5
  10.7500         7
  10.8000        11
  10.8500         3
  10.9000         7
  10.9500        10
  11.0000        10
  11.0500         5
  11.1000        12
  11.1500        10
  11.2000         9
  11.2500        13
  11.3000        13
  11.3500         6
  11.4000        11
  11.4500        10
  11.5000        14
  11.5500         8
  11.6000         9
  11.6500         8
  11.7000         8
  11.7500        10
  11.8000         6
  11.8500        15
  11.9000        15
  11.9500         9
  12.0000        13
  12.0500         7
  12.1000         6
  12.1500         4
  12.2000        11
  12.2500         8
  12.3000         6
  12.3500         9
  12.4000         7
  12.4500         8
  12.5000        12
  12.5500        13
  12.6000         5
  12.6500         7
  12.7000         9
  12.7500         5
  12.8000         6
  12.8500        11
  12.9000         8
  12.9500         9
  13.0000         7
  13.0500         7
  13.1000         7
  13.1500         5
  13.2000        10
  13.2500         4
  13.3000         9
  13.3500         7
  13.4000         9
  13.4500         3
  13.5000         9
  13.5500        13
  13.6000         8
  13.6500         8
  13.7000         9
  13.7500         7
  13.8000         5
  13.8500         3
  13.9000         3
  13.9500         7
  14.0000        12
  14.0500         2
  14.1000         7
  14.1500         5
  14.2000         3
  14.2500         4
  14.3000        11
  14.3500         8
  14.4000         6
  14.4500         9
  14.5000         9
  14.5500         9
  14.6000         8
  14.6500         9
  14.7000        10
  14.7500         6
  14.8000         5
  14.8500         9
  14.9000         7
  14.9500         9
  15.0000         8
  15.0500         6
  15.1000         8
  15.1500         8
  15.2000         6
  15.2500         7
  15.3000        10
  15.3500         8
  15.4000         3
  15.4500         9
  15.5000         6
  15.5500         8
  15.6000        12
  15.6500        12
  15.7000         4
  15.7500         4
  15.8000         4
  15.8500         9
  15.9000         4
  15.9500        12
  16.0000         4
  16.0500        13
  16.1000        12
  16.1500         6
  16.2000         8
  16.2500         7
  16.3000         9
  16.3500         8
  16.4000         1
  16.4500         7
  16.5000         5
  16.5500        11
  16.6000         6
  16.6500        13
  16.7000         8
  16.7500         2
  16.8000         9
  16.8500         5
  16.9000         8
  16.9500         6
  17.0000         5
  17.0500         6
  17.1000         7
  17.1500         8
  17.2000         3
  17.2500         8
  17.3000        10
  17.3500         7
  17.4000         8
  17.4500         7
  17.5000         5
  17.5500         4
  17.6000         8
  17.6500         4
  17.7000         9
  17.7500         4
  17.8000         8
  17.8500         7
  17.9000         6
  17.9500         5
  18.0000         6
  18.0500         3
  18.1000         6
  18.1500        11
  18.2000         8
  18.2500        13
  18.3000         8
  18.3500        11
  18.4000         9
  18.4500         9
  18.5000         5
  18.5500         7
  18.6000         7
  18.6500         7
  18.7000         7
  18.7500        13
  18.8000         4
  18.8500         3
  18.9000         4
  18.9500        10
  19.0000         6
  19.0500         6
  19.1000         5
  19.1500         9
  19.2000         9
  19.2500         7
  19.3000        11
  19.3500         6
  19.4000         7
  19.4500         5
  19.5000         8
  19.5500         8
  19.6000         7
  19.6500         3
  19.7000         4
  19.7500         3
  19.8000        10
  19.8500         4
  19.9000         5
  19.9500         3
  20.0000        12
  20.0500        12
  20.1000        12
  20.1500         5
  20.2000         7
  20.2500         9
  20.3000         4
  20.3500        10
  20.4000         4
  20.4500        10
  20.5000         6
  20.5500         7
  20.6000         7
  20.6500         4
  20.7000         6
  20.7500         6
  20.8000         4
  20.8500         6
  20.9000        10
  20.9500        13
  21.0000         6
  21.0500        11
  21.1000         4
  21.1500         8
  21.2000         6
  21.2500         7
  21.3000        12
  21.3500         8
  21.4000         6
  21.4500        13
  21.5000         4
  21.5500         7
  21.6000        12
  21.6500         8
  21.7000         8
  21.7500         7
  21.8000         3
  21.8500         9
  21.9000         8
  21.9500         3
  22.0000         6
  22.0500         8
  22.1000         9
  22.1500        10
  22.2000         5
  22.2500         5
  22.3000         6
  22.3500         6
  22.4000         9
  22.4500         5
  22.5000         9
  22.5500        12
  22.6000         7
  22.6500         9
  22.7000         5
  22.7500         8
  22.8000         6
  22.8500         9
  22.9000         5
  22.9500        12
  23.0000         5
  23.0500         9
  23.1000         8
  23.1500         9
  23.2000         6
  23.2500         9
  23.3000         8
  23.3500         8
  23.4000         5
  23.4500         5
  23.5000         3
  23.5500         8
  23.6000         8
  23.6500        11
  23.7000         4
  23.7500         9
  23.8000         8
  23.8500         8
  23.9000         4
  23.9500         7
  24.0000         9
  24.0500        11
  24.1000         1
  24.1500         8
  24.2000         9
  24.2500         5
  24.3000         5
  24.3500         7
  24.4000         6
  24.4500         4
  24.5000         8
  24.5500         3
  24.6000        14
  24.6500        12
  24.7000         8
  24.7500         4
  24.8000         3
  24.8500         9
  24.9000        13
  24.9500        10
  25.0000         8
  25.0500         7
  25.1000         5
  25.1500        10
  25.2000         9
  25.2500         4
  25.3000         8
  25.3500         5
  25.4000        12
  25.4500         5
  25.5000         7
  25.5500         6
  25.6000         6
  25.6500         4
  25.7000        12
  25.7500         7
  25.8000        15
  25.8500         4
  25.9000         6
  25.9500         9
  26.0000         4
  26.0500         4
  26.1000         4
  26.1500         6
  26.2000         7
  26.2500         4
  26.3000        13
  26.3500         6
  26.4000         5
  26.4500         5
  26.5000         5
  26.5500        11
  26.6000         8
  26.6500         9
  26.7000         8
  26.7500         9
  26.8000         6
  26.8500         3
  26.9000        12
  26.9500         7
  27.0000         3
  27.0500         6
  27.1000         5
  27.1500         5
  27.2000         8
  27.2500         5
  27.3000         4
  27.3500         6
  27.4000         8
  27.4500        11
  27.5000         8
  27.5500        11
  27.6000         4
  27.6500         3
  27.7000         2
  27.7500         9
  27.8000        12
  27.8500         6
  27.9000         9
  27.9500         7
  28.0000         5
  28.0500         7
  28.1000         8
  28.1500         3
  28.2000         5
  28.2500         2
  28.3000         6
  28.3500         5
  28.4000         7
  28.4500         7
  28.5000        13
  28.5500         5
  28.6000         5
  28.6500         5
  28.7000        13
  28.7500         2
  28.8000         7
  28.8500         5
  28.9000         5
  28.9500         7
  29.0000         9
  29.0500         9
  29.1000         4
  29.1500         8
  29.2000         8
  29.2500         6
  29.3000         7
  29.3500        11
  29.4000         4
  29.4500         5
  29.5000         9
  29.5500         7
  29.6000         6
  29.6500         7
  29.7000         8
  29.7500         9
  29.8000         5
  29.8500         7
  29.9000         4
  29.9500        10
  30.0000         6
  30.0500         4
  30.1000         6
  30.1500         9
  30.2000         6
  30.2500         5
  30.3000        12
  30.3500         6
  30.4000         7
  30.4500         9
  30.5000         9
  30.5500         4
  30.6000         8
  30.6500        11
  30.7000         7
  30.7500         5
  30.8000         7
  30.8500         6
  30.9000         5
  30.9500         5
  31.0000         8
  31.0500         2
  31.1000         2
  31.1500         7
  31.2000         4
  31.2500         3
  31.3000        12
  31.3500         4
  31.4000        14
  31.4500        11
  31.5000         8
  31.5500         7
  31.6000         4
  31.6500         3
  31.7000         7
  31.7500         4
  31.8000         5
  31.8500        10
  31.9000         6
  31.9500         7
  32.0000        15
  32.0500         3
  32.1000         6
  32.1500         8
  32.2000         7
  32.2500         7
  32.3000         7
  32.3500         8
  32.4000         8
  32.4500         9
  32.5000         9
  32.5500         6
  32.6000         5
  32.6500        11
  32.7000        10
  32.7500        10
  32.8000         5
  32.8500         5
  32.9000         8
  32.9500         8
  33.0000         6
  33.0500         3
  33.1000         4
  33.1500         7
  33.2000         8
  33.2500         9
  33.3000         5
  33.3500        14
  33.4000         8
  33.4500         6
  33.5000         8
  33.5500        11
  33.6000         9
  33.6500         6
  33.7000         4
  33.7500        13
  33.8000         8
  33.8500         8
  33.9000         8
  33.9500         7
  34.0000        11
  34.0500         9
  34.1000         8
  34.1500         4
  34.2000         9
  34.2500         7
  34.3000         8
  34.3500         7
  34.4000         6
  34.4500         7
  34.5000         7
  34.5500         6
  34.6000         5
  34.6500        11
  34.7000        10
  34.7500         8
  34.8000         1
  34.8500         7
  34.9000         6
  34.9500        11
  35.0000         8
  35.0500        11
  35.1000         5
  35.1500         5
  35.2000         7
  35.2500         9
  35.3000        11
  35.3500        10
  35.4000         3
  35.4500         4
  35.5000         8
  35.5500         2
  35.6000        11
  35.6500         9
  35.7000         6
  35.7500        15
  35.8000         9
  35.8500        11
  35.9000         4
  35.9500        13
  36.0000         4
  36.0500         6
  36.1000         9
  36.1500        13
  36.2000         6
  36.2500         7
  36.3000         5
  36.3500         4
  36.4000         9
  36.4500         3
  36.5000         7
  36.5500        10
  36.6000         7
  36.6500         7
  36.7000         8
  36.7500         5
  36.8000         6
  36.8500         6
  36.9000         1
  36.9500         7
  37.0000         2
  37.0500         1
  37.1000         6
  37.1500         5
  37.2000        11
  37.2500         6
  37.3000         5
  37.3500        12
  37.4000         5
  37.4500         8
  37.5000         7
  37.5500         7
  37.6000         4
  37.6500         9
  37.7000         7
  37.7500         5
  37.8000         9
  37.8500        10
  37.9000        10
  37.9500         6
  38.0000        12
  38.0500        11
  38.1000         8
  38.1500        12
  38.2000         7
  38.2500         8
  38.3000         8
  38.3500         9
  38.4000        11
  38.4500         8
  38.5000         5
  38.5500         6
  38.6000         5
  38.6500        10
  38.7000        10
  38.7500         9
  38.8000         8
  38.8500         4
  38.9000         6
  38.9500         9
  39.0000         9
  39.0500         7
  39.1000         7
  39.1500        11
  39.2000         7
  39.2500         9
  39.3000         4
  39.3500         6
  39.4000         9
  39.4500         4
  39.5000        10
  39.5500        10
  39.6000         9
  39.6500         4
  39.7000        10
  39.7500        14
  39.8000        11
  39.8500         8
  39.9000         5
  39.9500         7
  40.0000         5
  40.0500        10
  40.1000        11
  40.1500         2
  40.2000         6
  40.2500         6
  40.3000         9
  40.3500        15
  40.4000        11
  40.4500        13
  40.5000        11
  40.5500         4
  40.6000         5
  40.6500         6
  40.7000         7
  40.7500         8
  40.8000         7
  40.8500         1
  40.9000         8
  40.9500         5
  41.0000         5
  41.0500         6
  41.1000        10
  41.1500         9
  41.2000         9
  41.2500         7
  41.3000        14
  41.3500         5
  41.4000         8
  41.4500        11
  41.5000        12
  41.5500         6
  41.6000         9
  41.6500        11
  41.7000         6
  41.7500        12
  41.8000        11
  41.8500        10
  41.9000        11
  41.9500        10
  42.0000         5
  42.0500        15
  42.1000        11
  42.1500        11
  42.2000         6
  42.2500        13
  42.3000         8
  42.3500        10
  42.4000        10
  42.4500        10
  42.5000         6
  42.5500         8
  42.6000        12
  42.6500         8
  42.7000        15
  42.7500         8
  42.8000         9
  42.8500        12
  42.9000        18
  42.9500        16
  43.0000        19
  43.0500        14
  43.1000        19
  43.1500         9
  43.2000        10
  43.2500        22
  43.3000        18
  43.3500        21
  43.4000        24
  43.4500        23
  43.5000        22
  43.5500        24
  43.6000        30
  43.6500        30
  43.7000        26
  43.7500        30
  43.8000        36
  43.8500        52
  43.9000        66
  43.9500        77
  44.0000       136
  44.0500       179
  44.1000       235
  44.1500       429
  44.2000       602
  44.2500       792
  44.3000       936
  44.3500       904
  44.4000       766
  44.4500       602
  44.5000       405
  44.5500       276
  44.6000       198
  44.6500       122
  44.7000        63
  44.7500        47
  44.8000        39
  44.8500        37
  44.9000        32
  44.9500        34
  45.0000        23
  45.0500        28
  45.1000        20
  45.1500        14
  45.2000        18
  45.2500        16
  45.3000        22
  45.3500        15
  45.4000        15
  45.4500        11
  45.5000         8
  45.5500        14
  45.6000         3
  45.6500        18
  45.7000        15
  45.7500        12
  45.8000        10
  45.8500        10
  45.9000        13
  45.9500        12
  46.0000        10
  46.0500         6
  46.1000         8
  46.1500        11
  46.2000         8
  46.2500         7
  46.3000        13
  46.3500         5
  46.4000        14
  46.4500         7
  46.5000         6
  46.5500        13
  46.6000        11
  46.6500        15
  46.7000         6
  46.7500         8
  46.8000         7
  46.8500        11
  46.9000         6
  46.9500        13
  47.0000         7
  47.0500         8
  47.1000         6
  47.1500         7
  47.2000         7
  47.2500         6
  47.3000        12
  47.3500         7
  47.4000         9
  47.4500         9
  47.5000         8
  47.5500         8
  47.6000         4
  47.6500         6
  47.7000         8
  47.7500         7
  47.8000         8
  47.8500         7
  47.9000        11
  47.9500        12
  48.0000        11
  48.0500        10
  48.1000        11
  48.1500        12
  48.2000         7
  48.2500        13
  48.3000         6
  48.3500         9
  48.4000         5
  48.4500         7
  48.5000         7
  48.5500         7
  48.6000        10
  48.6500        12
  48.7000         7
  48.7500        10
  48.8000         7
  48.8500         3
  48.9000         4
  48.9500        11
  49.0000        13
  49.0500         7
  49.1000        11
  49.1500         8
  49.2000        10
  49.2500         9
  49.3000        11
  49.3500         7
  49.4000         8
  49.4500         7
  49.5000         8
  49.5500         9
  49.6000        15
  49.6500         5
  49.7000        13
  49.7500        11
  49.8000         8
  49.8500         8
  49.9000         8
  49.9500        11
  50.0000        12
  50.0500        13
  50.1000         7
  50.1500         9
  50.2000        16
  50.2500         5
  50.3000        16
  50.3500         5
  50.4000        12
  50.4500         9
  50.5000        18
  50.5500        15
  50.6000        15
  50.6500        15
  50.7000        12
  50.7500        23
  50.8000        20
  50.8500        18
  50.9000        15
  50.9500        37
  51.0000        23
  51.0500        30
  51.1000        32
  51.1500        47
  51.2000        57
  51.2500        60
  51.3000       100
  51.3500       125
  51.4000       140
  51.4500       164
  51.5000       221
  51.5500       240
  51.6000       254
  51.6500       261
  51.7000       256
  51.7500       258
  51.8000       192
  51.8500       160
  51.9000       133
  51.9500       102
  52.0000        62
  52.0500        58
  52.1000        46
  52.1500        35
  52.2000        31
  52.2500        25
  52.3000        25
  52.3500        19
  52.4000        21
  52.4500        14
  52.5000        20
  52.5500        23
  52.6000         8
  52.6500        13
  52.7000         9
  52.7500        15
  52.8000        11
  52.8500        12
  52.9000         9
  52.9500         7
  53.0000        17
  53.0500         6
  53.1000         6
  53.1500        11
  53.2000         6
  53.2500         7
  53.3000         5
  53.3500        12
  53.4000        10
  53.4500         5
  53.5000         8
  53.5500        14
  53.6000        12
  53.6500         8
  53.7000         6
  53.7500         9
  53.8000        13
  53.8500         5
  53.9000         9
  53.9500        10
  54.0000         7
  54.0500        10
  54.1000         4
  54.1500         8
  54.2000        12
  54.2500         9
  54.3000         8
  54.3500        11
  54.4000         8
  54.4500         9
  54.5000         0
  54.5500         7
  54.6000        10
  54.6500         5
  54.7000        10
  54.7500         7
  54.8000         6
  54.8500        15
  54.9000         5
  54.9500         4
  55.0000         9
  55.0500        15
  55.1000         4
  55.1500         7
  55.2000         4
  55.2500         6
  55.3000         5
  55.3500         7
  55.4000        12
  55.4500        14
  55.5000         5
  55.5500         8
  55.6000         6
  55.6500         6
  55.7000         6
  55.7500         4
  55.8000        11
  55.8500        13
  55.9000         4
  55.9500         4
  56.0000         7
  56.0500         9
  56.1000         8
  56.1500         9
  56.2000        13
  56.2500         9
  56.3000        15
  56.3500         7
  56.4000        12
  56.4500         4
  56.5000         4
  56.5500         5
  56.6000         5
  56.6500         5
  56.7000         4
  56.7500         6
  56.8000        10
  56.8500         7
  56.9000         3
  56.9500        10
  57.0000         6
  57.0500        10
  57.1000        11
  57.1500         7
  57.2000        15
  57.2500        11
  57.3000        12
  57.3500        14
  57.4000         9
  57.4500         3
  57.5000         6
  57.5500        11
  57.6000         6
  57.6500         5
  57.7000         9
  57.7500         5
  57.8000         8
  57.8500         7
  57.9000         9
  57.9500         4
  58.0000         9
  58.0500        13
  58.1000         5
  58.1500        12
  58.2000        11
  58.2500         8
  58.3000         9
  58.3500         4
  58.4000         9
  58.4500         5
  58.5000        12
  58.5500        10
  58.6000        11
  58.6500         7
  58.7000        11
  58.7500         8
  58.8000         8
  58.8500         7
  58.9000         5
  58.9500         3
  59.0000         7
  59.0500         8
  59.1000         8
  59.1500        10
  59.2000         5
  59.2500         8
  59.3000        13
  59.3500         1
  59.4000         5
  59.4500         8
  59.5000        10
  59.5500         6
  59.6000        10
  59.6500         8
  59.7000         6
  59.7500        13
  59.8000         8
  59.8500         7
  59.9000         9
  59.9500         7
  60.0000         9
  60.0500         8
  60.1000         7
  60.1500         7
  60.2000         7
  60.2500         7
  60.3000         4
  60.3500         7
  60.4000        13
  60.4500         7
  60.5000         4
  60.5500         8
  60.6000         2
  60.6500         9
  60.7000         3
  60.7500        10
  60.8000        17
  60.8500         8
  60.9000         5
  60.9500        10
  61.0000         5
  61.0500         9
  61.1000         7
  61.1500         7
  61.2000         3
  61.2500        14
  61.3000         6
  61.3500         6
  61.4000         9
  61.4500         9
  61.5000         8
  61.5500         4
  61.6000         9
  61.6500         4
  61.7000         5
  61.7500        10
  61.8000         3
  61.8500         8
  61.9000         2
  61.9500         4
  62.0000         7
  62.0500         6
  62.1000         5
  62.1500         8
  62.2000         8
  62.2500         6
  62.3000         7
  62.3500         7
  62.4000         3
  62.4500         7
  62.5000        10
  62.5500        12
  62.6000         8
  62.6500        12
  62.7000         4
  62.7500         8
  62.8000         7
  62.8500         8
  62.9000        10
  62.9500        13
  63.0000         8
  63.0500        11
  63.1000        13
  63.1500         9
  63.2000         9
  63.2500         4
  63.3000        12
  63.3500         7
  63.4000        12
  63.4500         8
  63.5000         9
  63.5500         6
  63.6000         6
  63.6500        10
  63.7000        13
  63.7500        14
  63.8000         5
  63.8500         4
  63.9000         6
  63.9500        14
  64.0000        11
  64.0500         4
  64.1000         8
  64.1500         6
  64.2000        11
  64.2500         4
  64.3000         5
  64.3500         6
  64.4000         4
  64.4500         8
  64.5000         5
  64.5500         6
  64.6000         4
  64.6500         6
  64.7000        12
  64.7500        10
  64.8000         8
  64.8500        10
  64.9000         9
  64.9500         6
  65.0000        11
  65.0500         8
  65.1000         5
  65.1500         6
  65.2000         5
  65.2500         7
  65.3000         3
  65.3500        11
  65.4000         7
  65.4500        12
  65.5000         8
  65.5500         6
  65.6000         8
  65.6500         9
  65.7000         8
  65.7500         6
  65.8000        10
  65.8500        11
  65.9000         6
  65.9500         5
  66.0000         6
  66.0500        12
  66.1000        10
  66.1500        14
  66.2000         8
  66.2500         9
  66.3000         7
  66.3500         5
  66.4000         9
  66.4500         6
  66.5000         7
  66.5500         8
  66.6000         8
  66.6500         6
  66.7000        11
  66.7500         8
  66.8000         7
  66.8500         3
  66.9000        13
  66.9500         8
  67.0000        10
  67.0500         6
  67.1000         5
  67.1500         9
  67.2000        10
  67.2500         4
  67.3000         8
  67.3500         5
  67.4000        13
  67.4500         8
  67.5000         5
  67.5500         4
  67.6000         7
  67.6500        11
  67.7000         2
  67.7500         1
  67.8000         8
  67.8500        10
  67.9000         9
  67.9500         4
  68.0000         4
  68.0500        11
  68.1000         5
  68.1500        13
  68.2000         6
  68.2500        11
  68.3000         8
  68.3500         7
  68.4000         8
  68.4500         7
  68.5000         6
  68.5500         4
  68.6000         6
  68.6500         7
  68.7000         5
  68.7500         7
  68.8000        13
  68.8500         3
  68.9000         6
  68.9500         8
  69.0000         8
  69.0500        13
  69.1000         5
  69.1500         9
  69.2000         5
  69.2500         5
  69.3000         8
  69.3500         7
  69.4000         6
  69.4500        10
  69.5000         4
  69.5500         2
  69.6000         2
  69.6500         9
  69.7000        11
  69.7500        10
  69.8000        11
  69.8500         2
  69.9000         8
  69.9500        10
  70.0000        10
  70.0500        12
  70.1000         7
  70.1500        10
  70.2000         8
  70.2500         9
  70.3000         7
  70.3500         5
  70.4000        12
  70.4500         5
  70.5000        14
  70.5500        10
  70.6000         6
  70.6500         8
  70.7000         8
  70.7500         9
  70.8000        11
  70.8500        11
  70.9000         4
  70.9500         6
  71.0000         4
  71.0500        14
  71.1000         5
  71.1500         5
  71.2000        11
  71.2500         8
  71.3000         6
  71.3500         7
  71.4000        10
  71.4500         5
  71.5000         7
  71.5500         8
  71.6000         3
  71.6500         7
  71.7000         5
  71.7500         7
  71.8000        13
  71.8500         6
  71.9000         5
  71.9500        12
  72.0000         9
  72.0500         6
  72.1000         8
  72.1500         8
  72.2000         8
  72.2500        12
  72.3000         8
  72.3500         6
  72.4000        10
  72.4500         5
  72.5000         7
  72.5500         6
  72.6000         7
  72.6500         8
  72.7000        12
  72.7500        10
  72.8000        10
  72.8500         8
  72.9000         6
  72.9500         8
  73.0000         4
  73.0500         8
  73.1000         6
  73.1500         9
  73.2000         7
  73.2500         3
  73.3000         7
  73.3500         5
  73.4000        11
  73.4500         5
  73.5000         8
  73.5500        10
  73.6000         8
  73.6500        12
  73.7000         8
  73.7500        19
  73.8000        12
  73.8500        10
  73.9000        10
  73.9500        13
  74.0000         9
  74.0500        10
  74.1000         8
  74.1500         7
  74.2000        12
  74.2500         9
  74.3000         8
  74.3500         8
  74.4000        10
  74.4500         5
  74.5000        14
  74.5500         7
  74.6000        10
  74.6500         9
  74.7000         7
  74.7500        11
  74.8000         7
  74.8500        11
  74.9000        10
  74.9500        16
  75.0000        11
  75.0500        16
  75.1000        17
  75.1500        16
  75.2000        21
  75.2500        14
  75.3000        23
  75.3500        21
  75.4000        20
  75.4500        25
  75.5000        41
  75.5500        46
  75.6000        44
  75.6500        48
  75.7000        64
  75.7500        72
  75.8000        91
  75.8500       111
  75.9000       107
  75.9500       120
  76.0000       118
  76.0500       123
  76.1000       111
  76.1500       116
  76.2000        93
  76.2500        77
  76.3000        80
  76.3500        43
  76.4000        43
  76.4500        41
  76.5000        32
  76.5500        28
  76.6000        14
  76.6500        21
  76.7000        19
  76.7500        23
  76.8000        12
  76.8500        12
  76.9000        13
  76.9500        12
  77.0000        15
  77.0500        18
  77.1000        16
  77.1500        10
  77.2000        12
  77.2500         9
  77.3000         7
  77.3500        19
  77.4000        11
  77.4500        11
  77.5000        10
  77.5500         8
  77.6000        10
  77.6500         5
  77.7000         6
  77.7500        12
  77.8000         6
  77.8500         8
  77.9000         8
  77.9500         7
  78.0000        12
  78.0500        12
  78.1000         4
  78.1500        13
  78.2000         9
  78.2500         5
  78.3000         7
  78.3500        16
  78.4000         4
  78.4500        11
  78.5000        11
  78.5500         5
  78.6000        10
  78.6500        10
  78.7000         6
  78.7500         8
  78.8000        14
  78.8500         8
  78.9000        16
  78.9500         7
  79.0000         9
  79.0500        12
  79.1000         5
  79.1500        12
  79.2000        12
  79.2500         4
  79.3000        12
  79.3500        11
  79.4000        10
  79.4500         9
  79.5000        13
  79.5500         5
  79.6000         2
  79.6500         9
  79.7000        11
  79.7500        10
  79.8000         7
  79.8500        10
  79.9000        10
  79.9500        12
  80.0000        10
  80.0500         6
  80.1000        13
  80.1500        11
  80.2000        10
  80.2500        11
  80.3000        12
  80.3500         8
  80.4000         5
  80.4500         9
  80.5000         9
  80.5500        11
  80.6000         8
  80.6500        14
  80.7000         6
  80.7500         9
  80.8000        10
  80.8500        15
  80.9000         8
  80.9500         9
  81.0000         9
  81.0500         7
  81.1000        13
  81.1500         9
  81.2000        10
  81.2500         9
  81.3000         5
  81.3500        14
  81.4000        14
  81.4500         8
  81.5000         7
  81.5500        10
  81.6000         8
  81.6500        10
  81.7000         9
  81.7500         9
  81.8000         7
  81.8500         6
  81.9000         6
  81.9500        12
  82.0000         8
  82.0500         9
  82.1000        11
  82.1500         9
  82.2000         8
  82.2500         6
  82.3000         5
  82.3500         4
  82.4000         9
  82.4500        12
  82.5000         8
  82.5500         9
  82.6000         6
  82.6500         7
  82.7000         6
  82.7500        10
  82.8000         7
  82.8500        10
  82.9000         7
  82.9500         6
  83.0000         6
  83.0500         4
  83.1000         5
  83.1500         0
  83.2000        11
  83.2500         7
  83.3000         7
  83.3500        12
  83.4000         8
  83.4500        13
  83.5000         9
  83.5500        12
  83.6000         8
  83.6500         5
  83.7000         6
  83.7500        13
  83.8000        10
  83.8500         9
  83.9000        10
  83.9500        14
  84.0000         6
  84.0500        11
  84.1000         9
  84.1500         8
  84.2000         6
  84.2500         9
  84.3000         8
  84.3500         9
  84.4000         5
  84.4500         9
  84.5000         6
  84.5500         7
  84.6000         4
  84.6500         3
  84.7000         6
  84.7500         7
  84.8000         8
  84.8500         7
  84.9000         9
  84.9500         9
  85.0000         6
  85.0500         7
  85.1000        11
  85.1500         7
  85.2000         5
  85.2500         6
  85.3000        10
  85.3500        10
  85.4000        10
  85.4500         6
  85.5000         9
  85.5500         4
  85.6000        10
  85.6500         7
  85.7000         4
  85.7500         8
  85.8000        14
  85.8500        13
  85.9000        12
  85.9500        10
  86.0000        13
  86.0500         8
  86.1000         8
  86.1500        11
  86.2000         9
  86.2500         9
  86.3000         7
  86.3500         7
  86.4000        10
  86.4500         7
  86.5000         8
  86.5500        12
  86.6000         3
  86.6500        10
  86.7000         6
  86.7500        13
  86.8000         4
  86.8500         9
  86.9000         9
  86.9500         8
  87.0000        10
  87.0500         7
  87.1000         3
  87.1500         8
  87.2000         4
  87.2500         7
  87.3000         5
  87.3500         9
  87.4000         5
  87.4500         7
  87.5000         5
  87.5500         7
  87.6000         4
  87.6500         8
  87.7000        11
  87.7500        13
  87.8000        12
  87.8500        11
  87.9000         9
  87.9500         9
  88.0000         8
  88.0500         4
  88.1000         8
  88.1500         9
  88.2000        10
  88.2500        15
  88.3000         9
  88.3500         8
  88.4000         7
  88.4500         4
  88.5000        12
  88.5500         8
  88.6000         7
  88.6500         9
  88.7000         9
  88.7500         9
  88.8000         6
  88.8500         8
  88.9000         7
  88.9500         9
  89.0000         9
  89.0500         7
  89.1000         8
  89.1500         6
  89.2000        12
  89.2500         5
  89.3000        12
  89.3500         9
  89.4000        11
  89.4500        10
  89.5000         8
  89.5500         3
  89.6000         4
  89.6500         8
  89.7000         9
  89.7500         5
  89.8000         7
  89.8500        15
  89.9000        10
  89.9500         9
  90.0000        13
  90.0500        11
  90.1000         9
  90.1500        10
  90.2000         7
  90.2500        15
  90.3000         6
  90.3500        12
  90.4000        11
  90.4500         8
  90.5000        11
  90.5500        11
  90.6000        11
  90.6500        14
  90.7000         8
  90.7500        12
  90.8000        13
  90.8500        11
  90.9000        13
  90.9500        13
  91.0000         8
  91.0500         5
  91.1000         8
  91.1500        10
  91.2000        14
  91.2500        16
  91.3000        14
  91.3500        16
  91.4000        18
  91.4500        19
  91.5000        25
  91.5500        28
  91.6000        26
  91.6500        32
  91.7000        26
  91.7500        33
  91.8000        41
  91.8500        39
  91.9000        47
  91.9500        51
  92.0000        61
  92.0500        69
  92.1000        63
  92.1500        81
  92.2000        81
  92.2500        89
  92.3000        86
  92.3500        94
  92.4000        97
  92.4500        92
  92.5000        85
  92.5500       101
  92.6000        96
  92.6500        71
  92.7000        55
  92.7500        65
  92.8000        57
  92.8500        49
  92.9000        46
  92.9500        52
  93.0000        35
  93.0500        42
  93.1000        25
  93.1500        26
  93.2000        25
  93.2500        14
  93.3000        18
  93.3500        19
  93.4000        13
  93.4500        15
  93.5000        13
  93.5500        16
  93.6000        14
  93.6500        16
  93.7000        13
  93.7500        18
  93.8000        19
  93.8500        15
  93.9000        13
  93.9500        13
  94.0000        11
  94.0500        12
  94.1000        15
  94.1500        12
  94.2000        16
  94.2500         6
  94.3000         9
  94.3500         9
  94.4000        10
  94.4500        10
  94.5000        14
  94.5500        11
  94.6000         7
  94.6500         5
  94.7000         5
  94.7500         8
  94.8000         9
  94.8500        10
  94.9000        11
  94.9500        14
  95.0000         8
  95.0500         8
  95.1000         9
  95.1500         9
  95.2000         6
  95.2500         7
  95.3000        10
  95.3500         9
  95.4000        19
  95.4500        11
  95.5000        12
  95.5500         9
  95.6000         9
  95.6500         8
  95.7000         8
  95.7500        10
  95.8000        11
  95.8500         7
  95.9000        12
  95.9500         7
  96.0000         9
  96.0500        11
  96.1000        14
  96.1500         7
  96.2000         8
  96.2500         6
  96.3000         9
  96.3500         6
  96.4000        17
  96.4500        10
  96.5000         6
  96.5500        10
  96.6000        11
  96.6500        12
  96.7000         6
  96.7500         9
  96.8000         8
  96.8500        14
  96.9000        10
  96.9500         7
  97.0000        13
  97.0500        14
  97.1000        15
  97.1500        16
  97.2000        11
  97.2500        20
  97.3000        15
  97.3500        14
  97.4000        16
  97.4500        26
  97.5000        26
  97.5500        30
  97.6000        41
  97.6500        32
  97.7000        30
  97.7500        41
  97.8000        47
  97.8500        35
  97.9000        33
  97.9500        39
  98.0000        30
  98.0500        27
  98.1000        40
  98.1500        20
  98.2000        25
  98.2500        16
  98.3000        21
  98.3500        22
  98.4000        13
  98.4500        26
  98.5000        13
  98.5500        10
  98.6000        15
  98.6500        11
  98.7000        13
  98.7500        12
  98.8000        15
  98.8500        10
  98.9000        14
  98.9500         8
  99.0000         9
  99.0500        11
  99.1000        17
  99.1500        11
  99.2000        12
  99.2500        12
  99.3000        15
  99.3500        13
  99.4000         9
  99.4500         3
  99.5000        16
  99.5500         8
  99.6000         7
  99.6500        10
  99.7000        12
  99.7500         4
  99.8000        11
  99.8500         8
  99.9000         4
  99.9500        15
 100.0000         6
 100.0500        15
 100.1000         9
 100.1500         7
 100.2000        11
 100.2500        12
 100.3000        12
 100.3500        10
 100.4000         9
 100.4500        10
 100.5000         7
 100.5500        11
 100.6000         7
 100.6500         5
 100.7000         9
 100.7500         9
 100.8000        10
 100.8500         8
 100.9000         5
 100.9500        13
 101.0000        10
 101.0500         5
 101.1000         6
 101.1500         7
 101.2000         7
 101.2500         9
 101.3000        10
 101.3500        13
 101.4000        13
 101.4500         7
 101.5000         7
 101.5500         7
 101.6000         8
 101.6500        10
 101.7000        12
 101.7500        11
 101.8000         9
 101.8500         9
 101.9000        11
 101.9500         9
 102.0000        12
 102.0500        12
 102.1000        12
 102.1500        14
 102.2000         6
 102.2500         9
 102.3000         4
 102.3500        10
 102.4000        12
 102.4500        14
 102.5000         7
 102.5500         9
 102.6000         9
 102.6500        14
 102.7000         7
 102.7500         8
 102.8000        13
 102.8500        11
 102.9000         7
 102.9500         8
 103.0000        14
 103.0500        10
 103.1000         6
 103.1500         5
 103.2000         9
 103.2500         5
 103.3000        11
 103.3500         9
 103.4000        18
 103.4500         7
 103.5000         8
 103.5500         6
 103.6000        13
 103.6500        11
 103.7000         3
 103.7500        12
 103.8000        10
 103.8500         9
 103.9000         9
 103.9500         8
 104.0000        11
 104.0500        12
 104.1000         7
 104.1500        14
 104.2000         2
 104.2500        11
 104.3000         6
 104.3500         9
 104.4000         5
 104.4500         7
 104.5000         6
 104.5500         6
 104.6000        12
 104.6500        15
 104.7000         8
 104.7500         7
 104.8000         8
 104.8500        10
 104.9000        12
 104.9500         6
 105.0000         6
 105.0500        10
 105.1000         7
 105.1500         9
 105.2000        14
 105.2500         4
 105.3000         8
 105.3500         8
 105.4000         9
 105.4500        14
 105.5000        14
 105.5500         9
 105.6000        16
 105.6500        10
 105.7000         5
 105.7500        10
 105.8000        10
 105.8500         4
 105.9000         5
 105.9500         7
 106.0000         9
 106.0500         6
 106.1000        15
 106.1500         9
 106.2000         9
 106.2500         7
 106.3000         5
 106.3500         7
 106.4000         6
 106.4500        11
 106.5000         9
 106.5500         6
 106.6000        10
 106.6500        14
 106.7000         9
 106.7500        11
 106.8000         7
 106.8500         5
 106.9000         5
 106.9500        10
 107.0000         9
 107.0500        15
 107.1000         5
 107.1500         9
 107.2000         9
 107.2500        10
 107.3000        12
 107.3500         6
 107.4000        13
 107.4500        11
 107.5000         7
 107.5500         9
 107.6000         9
 107.6500         5
 107.7000        10
 107.7500        11
 107.8000         6
 107.8500         8
 107.9000        17
 107.9500         4
 108.0000         8
 108.0500         9
 108.1000        10
 108.1500         6
 108.2000         9
 108.2500         5
 108.3000         7
 108.3500         7
 108.4000         5
 108.4500         5
 108.5000        13
 108.5500         7
 108.6000         8
 108.6500         7
 108.7000         8
 108.7500        10
 108.8000         8
 108.8500         9
 108.9000        10
 108.9500         4
 109.0000         5
 109.0500        11
 109.1000        12
 109.1500        11
 109.2000         6
 109.2500         5
 109.3000        10
 109.3500         8
 109.4000        16
 109.4500         6
 109.5000         8
 109.5500        17
 109.6000        10
 109.6500        10
 109.7000        10
 109.7500        10
 109.8000         7
 109.8500        12
 109.9000         9
 109.9500         5
 110.0000         4
