  10.0000         8
  10.0500        12
  10.1000         9
  10.1500        18
  10.2000         7
  10.2500         3
  10.3000        14
  10.3500         3
  10.4000         9
  10.4500        10
  10.5000         8
  10.5500        13
  10.6000        12
  10.6500        11
  10.7000         7
  10.7500        11
  10.8000        12
  10.8500        11
  10.9000        12
  10.9500         7
  11.0000        11
  11.0500        17
  11.1000        18
  11.1500         7
  11.2000        14
  11.2500        14
  11.3000         9
  11.3500        17
  11.4000         7
  11.4500         6
  11.5000        15
  11.5500        12
  11.6000        12
  11.6500        20
  11.7000        18
  11.7500         5
  11.8000        10
  11.8500         6
  11.9000         8
  11.9500        12
  12.0000         7
  12.0500         9
  12.1000         8
  12.1500        13
  12.2000        18
  12.2500         9
  12.3000        14
  12.3500        17
  12.4000         6
  12.4500        13
  12.5000        15
  12.5500        12
  12.6000        11
  12.6500        12
  12.7000        13
  12.7500        10
  12.8000        10
  12.8500        10
  12.9000         5
  12.9500        12
  13.0000        10
  13.0500        10
  13.1000        10
  13.1500        10
  13.2000        14
  13.2500        10
  13.3000         3
  13.3500         7
  13.4000         8
  13.4500        11
  13.5000         9
  13.5500         7
  13.6000         6
  13.6500         9
  13.7000        10
  13.7500         7
  13.8000        12
  13.8500        13
  13.9000         8
  13.9500        12
  14.0000         9
  14.0500         9
  14.1000        10
  14.1500        14
  14.2000        14
  14.2500         9
  14.3000         7
  14.3500        10
  14.4000        17
  14.4500         7
  14.5000        12
  14.5500         9
  14.6000        11
  14.6500         5
  14.7000         7
  14.7500         9
  14.8000        12
  14.8500         5
  14.9000         8
  14.9500        12
  15.0000         6
  15.0500         9
  15.1000        13
  15.1500         8
  15.2000         8
  15.2500        10
  15.3000        13
  15.3500        12
  15.4000         7
  15.4500         8
  15.5000        11
  15.5500         6
  15.6000         9
  15.6500         8
  15.7000        10
  15.7500        13
  15.8000        13
  15.8500        11
  15.9000         8
  15.9500         9
  16.0000        11
  16.0500         4
  16.1000         8
  16.1500        13
  16.2000        10
  16.2500        11
  16.3000        11
  16.3500         9
  16.4000         8
  16.4500        11
  16.5000         9
  16.5500        12
  16.6000        10
  16.6500        12
  16.7000         9
  16.7500        14
  16.8000         5
  16.8500         8
  16.9000         9
  16.9500        12
  17.0000         5
  17.0500        10
  17.1000        11
  17.1500        12
  17.2000        10
  17.2500        10
  17.3000        12
  17.3500        14
  17.4000        10
  17.4500         8
  17.5000        15
  17.5500        12
  17.6000         6
  17.6500         7
  17.7000        13
  17.7500         8
  17.8000        11
  17.8500        11
  17.9000         8
  17.9500        10
  18.0000         9
  18.0500        10
  18.1000        12
  18.1500        13
  18.2000        11
  18.2500        10
  18.3000        13
  18.3500         6
  18.4000        11
  18.4500        10
  18.5000         8
  18.5500         8
  18.6000         8
  18.6500         7
  18.7000        12
  18.7500        13
  18.8000        12
  18.8500         6
  18.9000        10
  18.9500        13
  19.0000        10
  19.0500        11
  19.1000        14
  19.1500         9
  19.2000        13
  19.2500         3
  19.3000         4
  19.3500        14
  19.4000         6
  19.4500        13
  19.5000         6
  19.5500         7
  19.6000         8
  19.6500        13
  19.7000         6
  19.7500        11
  19.8000         5
  19.8500         8
  19.9000         3
  19.9500        10
  20.0000        10
  20.0500        11
  20.1000        10
  20.1500         7
  20.2000        11
  20.2500         9
  20.3000        12
  20.3500        17
  20.4000         8
  20.4500        10
  20.5000        13
  20.5500         9
  20.6000         9
  20.6500        11
  20.7000         9
  20.7500         9
  20.8000        13
  20.8500         6
  20.9000         8
  20.9500         8
  21.0000        11
  21.0500        12
  21.1000         7
  21.1500        10
  21.2000         4
  21.2500        10
  21.3000         9
  21.3500        14
  21.4000        13
  21.4500         8
  21.5000         9
  21.5500        13
  21.6000         9
  21.6500         5
  21.7000        10
  21.7500         9
  21.8000         9
  21.8500        10
  21.9000        14
  21.9500         9
  22.0000         6
  22.0500        12
  22.1000        10
  22.1500        15
  22.2000         7
  22.2500        10
  22.3000         9
  22.3500        13
  22.4000        11
  22.4500         8
  22.5000        10
  22.5500        10
  22.6000         9
  22.6500         5
  22.7000        14
  22.7500         9
  22.8000        10
  22.8500         9
  22.9000         8
  22.9500        11
  23.0000        14
  23.0500        11
  23.1000         9
  23.1500        10
  23.2000        13
  23.2500         6
  23.3000         8
  23.3500        13
  23.4000        11
  23.4500        11
  23.5000         9
  23.5500        10
  23.6000         4
  23.6500         9
  23.7000        11
  23.7500         9
  23.8000         5
  23.8500        10
  23.9000         6
  23.9500         8
  24.0000        12
  24.0500         8
  24.1000         9
  24.1500         9
  24.2000         6
  24.2500         6
  24.3000         8
  24.3500        18
  24.4000         8
  24.4500        17
  24.5000        13
  24.5500         9
  24.6000         9
  24.6500        13
  24.7000         9
  24.7500         8
  24.8000         9
  24.8500         8
  24.9000         8
  24.9500        12
  25.0000        12
  25.0500         6
  25.1000         6
  25.1500        11
  25.2000        12
  25.2500         7
  25.3000         8
  25.3500         6
  25.4000         9
  25.4500         4
  25.5000         9
  25.5500        21
  25.6000        12
  25.6500         6
  25.7000         7
  25.7500         7
  25.8000         5
  25.8500        11
  25.9000         9
  25.9500         8
  26.0000         7
  26.0500        11
  26.1000        11
  26.1500         8
  26.2000        10
  26.2500         6
  26.3000        13
  26.3500        12
  26.4000         7
  26.4500         8
  26.5000         6
  26.5500         9
  26.6000        11
  26.6500        13
  26.7000        12
  26.7500        12
  26.8000        12
  26.8500         5
  26.9000         7
  26.9500        13
  27.0000        10
  27.0500         8
  27.1000         7
  27.1500        12
  27.2000         8
  27.2500        13
  27.3000         7
  27.3500         8
  27.4000         6
  27.4500        15
  27.5000         8
  27.5500        10
  27.6000         7
  27.6500         6
  27.7000         6
  27.7500         7
  27.8000         8
  27.8500         9
  27.9000        12
  27.9500        11
  28.0000         8
  28.0500         7
  28.1000         5
  28.1500         8
  28.2000         8
  28.2500        12
  28.3000        14
  28.3500         6
  28.4000        13
  28.4500         7
  28.5000        11
  28.5500         9
  28.6000         9
  28.6500        12
  28.7000         8
  28.7500         3
  28.8000        10
  28.8500         3
  28.9000         5
  28.9500        10
  29.0000         9
  29.0500         7
  29.1000        11
  29.1500         7
  29.2000         7
  29.2500        12
  29.3000        10
  29.3500        12
  29.4000         8
  29.4500         6
  29.5000        12
  29.5500         4
  29.6000         9
  29.6500        12
  29.7000        12
  29.7500        11
  29.8000         8
  29.8500        10
  29.9000         9
  29.9500        14
  30.0000         6
  30.0500         8
  30.1000         7
  30.1500        11
  30.2000         8
  30.2500        15
  30.3000        12
  30.3500        12
  30.4000        17
  30.4500         7
  30.5000        10
  30.5500         8
  30.6000         5
  30.6500         6
  30.7000        11
  30.7500         7
  30.8000         6
  30.8500         3
  30.9000         6
  30.9500        12
  31.0000        11
  31.0500        12
  31.1000         8
  31.1500        14
  31.2000         9
  31.2500         6
  31.3000         5
  31.3500        13
  31.4000        10
  31.4500         8
  31.5000         9
  31.5500         4
  31.6000        11
  31.6500         9
  31.7000        13
  31.7500        13
  31.8000        10
  31.8500         8
  31.9000         8
  31.9500         5
  32.0000        12
  32.0500         6
  32.1000         4
  32.1500        14
  32.2000        10
  32.2500         4
  32.3000         5
  32.3500        11
  32.4000        13
  32.4500         9
  32.5000        12
  32.5500         6
  32.6000        13
  32.6500         9
  32.7000        16
  32.7500        10
  32.8000         9
  32.8500         6
  32.9000         9
  32.9500         8
  33.0000         8
  33.0500        16
  33.1000        11
  33.1500         9
  33.2000         8
  33.2500        13
  33.3000        17
  33.3500         8
  33.4000         9
  33.4500         8
  33.5000         4
  33.5500        10
  33.6000         6
  33.6500         9
  33.7000         3
  33.7500        11
  33.8000         4
  33.8500        12
  33.9000         6
  33.9500        15
  34.0000         8
  34.0500        10
  34.1000        10
  34.1500        12
  34.2000        12
  34.2500        14
  34.3000        10
  34.3500         9
  34.4000         6
  34.4500        12
  34.5000         5
  34.5500         5
  34.6000         9
  34.6500         8
  34.7000         8
  34.7500        11
  34.8000         9
  34.8500         7
  34.9000         7
  34.9500         9
  35.0000         4
  35.0500         7
  35.1000        10
  35.1500        12
  35.2000        11
  35.2500         6
  35.3000        13
  35.3500         5
  35.4000        13
  35.4500         8
  35.5000         7
  35.5500         7
  35.6000        10
  35.6500        13
  35.7000         7
  35.7500         9
  35.8000         5
  35.8500         7
  35.9000        13
  35.9500         9
  36.0000         8
  36.0500        12
  36.1000         8
  36.1500        12
  36.2000        12
  36.2500        10
  36.3000        15
  36.3500         5
  36.4000        10
  36.4500        17
  36.5000         8
  36.5500        10
  36.6000        12
  36.6500         8
  36.7000         6
  36.7500         9
  36.8000        13
  36.8500         5
  36.9000         6
  36.9500        10
  37.0000         8
  37.0500        13
  37.1000         3
  37.1500         8
  37.2000         7
  37.2500        10
  37.3000        11
  37.3500         9
  37.4000        14
  37.4500         8
  37.5000        12
  37.5500        11
  37.6000        14
  37.6500        18
  37.7000         8
  37.7500        11
  37.8000         7
  37.8500         8
  37.9000        14
  37.9500         7
  38.0000         8
  38.0500         3
  38.1000         9
  38.1500         7
  38.2000        15
  38.2500        10
  38.3000        11
  38.3500         7
  38.4000        12
  38.4500        22
  38.5000        14
  38.5500        14
  38.6000        16
  38.6500        16
  38.7000        21
  38.7500        13
  38.8000         9
  38.8500        10
  38.9000         6
  38.9500        18
  39.0000         4
  39.0500        10
  39.1000        11
  39.1500        14
  39.2000        15
  39.2500        10
  39.3000         6
  39.3500        14
  39.4000         6
  39.4500         7
  39.5000         8
  39.5500         7
  39.6000        11
  39.6500         9
  39.7000         5
  39.7500         9
  39.8000         5
  39.8500         8
  39.9000         6
  39.9500        10
  40.0000        13
  40.0500         9
  40.1000         7
  40.1500         5
  40.2000         7
  40.2500        10
  40.3000        11
  40.3500         7
  40.4000         6
  40.4500         6
  40.5000         6
  40.5500        10
  40.6000        11
  40.6500         7
  40.7000        13
  40.7500        12
  40.8000        12
  40.8500         7
  40.9000        14
  40.9500         8
  41.0000         4
  41.0500         3
  41.1000        10
  41.1500        15
  41.2000        10
  41.2500         9
  41.3000        14
  41.3500         9
  41.4000         5
  41.4500        10
  41.5000        12
  41.5500        13
  41.6000         6
  41.6500        11
  41.7000        18
  41.7500         9
  41.8000        13
  41.8500         9
  41.9000        15
  41.9500        11
  42.0000         5
  42.0500         9
  42.1000        10
  42.1500         9
  42.2000        14
  42.2500         8
  42.3000        12
  42.3500         8
  42.4000        18
  42.4500         9
  42.5000        13
  42.5500        10
  42.6000        13
  42.6500         7
  42.7000        20
  42.7500        15
  42.8000         8
  42.8500        12
  42.9000        12
  42.9500        12
  43.0000        13
  43.0500        18
  43.1000        12
  43.1500        22
  43.2000        16
  43.2500        17
  43.3000        23
  43.3500        20
  43.4000        18
  43.4500        25
  43.5000        11
  43.5500        20
  43.6000        16
  43.6500        32
  43.7000        24
  43.7500        17
  43.8000        23
  43.8500        19
  43.9000        26
  43.9500        20
  44.0000        24
  44.0500        30
  44.1000        43
  44.1500        52
  44.2000        61
  44.2500        94
  44.3000       131
  44.3500       242
  44.4000       419
  44.4500       668
  44.5000      1094
  44.5500      1326
  44.6000      1338
  44.6500      1189
  44.7000       847
  44.7500       564
  44.8000       328
  44.8500       213
  44.9000       133
  44.9500        82
  45.0000        60
  45.0500        41
  45.1000        32
  45.1500        31
  45.2000        26
  45.2500        36
  45.3000        28
  45.3500        25
  45.4000        14
  45.4500        19
  45.5000        23
  45.5500        20
  45.6000        14
  45.6500        18
  45.7000        13
  45.7500        10
  45.8000        14
  45.8500         6
  45.9000        16
  45.9500        11
  46.0000         9
  46.0500        12
  46.1000        10
  46.1500        13
  46.2000         6
  46.2500        17
  46.3000        22
  46.3500        14
  46.4000        13
  46.4500        10
  46.5000        17
  46.5500         8
  46.6000        11
  46.6500        12
  46.7000         7
  46.7500         5
  46.8000         9
  46.8500        11
  46.9000         6
  46.9500        10
  47.0000         8
  47.0500        13
  47.1000        13
  47.1500         7
  47.2000        10
  47.2500        10
  47.3000        13
  47.3500        14
  47.4000        10
  47.4500        15
  47.5000        11
  47.5500        13
  47.6000        11
  47.6500        10
  47.7000        11
  47.7500         8
  47.8000         5
  47.8500        12
  47.9000        10
  47.9500         6
  48.0000        10
  48.0500        14
  48.1000         9
  48.1500         8
  48.2000         7
  48.2500         6
  48.3000        10
  48.3500        14
  48.4000        12
  48.4500        11
  48.5000        11
  48.5500         7
  48.6000         8
  48.6500         9
  48.7000        12
  48.7500        10
  48.8000         8
  48.8500        14
  48.9000        10
  48.9500         6
  49.0000        12
  49.0500        10
  49.1000         6
  49.1500        13
  49.2000         6
  49.2500        14
  49.3000        11
  49.3500        10
  49.4000        12
  49.4500        12
  49.5000        14
  49.5500         7
  49.6000        15
  49.6500         7
  49.7000        14
  49.7500        13
  49.8000         5
  49.8500        11
  49.9000        12
  49.9500        15
  50.0000        13
  50.0500        10
  50.1000        11
  50.1500        11
  50.2000        16
  50.2500         7
  50.3000        11
  50.3500        11
  50.4000        10
  50.4500        12
  50.5000        22
  50.5500        10
  50.6000        16
  50.6500        20
  50.7000        14
  50.7500        11
  50.8000        16
  50.8500        14
  50.9000        14
  50.9500        12
  51.0000        16
  51.0500        18
  51.1000        25
  51.1500        17
  51.2000        22
  51.2500        26
  51.3000        24
  51.3500        39
  51.4000        32
  51.4500        38
  51.5000        42
  51.5500        70
  51.6000        78
  51.6500        96
  51.7000       143
  51.7500       216
  51.8000       330
  51.8500       420
  51.9000       448
  51.9500       442
  52.0000       420
  52.0500       342
  52.1000       270
  52.1500       199
  52.2000       145
  52.2500        87
  52.3000        71
  52.3500        50
  52.4000        40
  52.4500        36
  52.5000        29
  52.5500        12
  52.6000        20
  52.6500        25
  52.7000        19
  52.7500        12
  52.8000        18
  52.8500        20
  52.9000        14
  52.9500        16
  53.0000        12
  53.0500        17
  53.1000        12
  53.1500         9
  53.2000        13
  53.2500         3
  53.3000         8
  53.3500        11
  53.4000         9
  53.4500        14
  53.5000        12
  53.5500        10
  53.6000        10
  53.6500        12
  53.7000        13
  53.7500        12
  53.8000         7
  53.8500         8
  53.9000        11
  53.9500        15
  54.0000        11
  54.0500         8
  54.1000        12
  54.1500        15
  54.2000         9
  54.2500        11
  54.3000         9
  54.3500         7
  54.4000        10
  54.4500        12
  54.5000         8
  54.5500        10
  54.6000         6
  54.6500        15
  54.7000        11
  54.7500        12
  54.8000        10
  54.8500         8
  54.9000        12
  54.9500        10
  55.0000         9
  55.0500        11
  55.1000        11
  55.1500        12
  55.2000        15
  55.2500         7
  55.3000        12
  55.3500         8
  55.4000        12
  55.4500        14
  55.5000         9
  55.5500         7
  55.6000        12
  55.6500         7
  55.7000         8
  55.7500         9
  55.8000        10
  55.8500        13
  55.9000        10
  55.9500         9
  56.0000        12
  56.0500        10
  56.1000        10
  56.1500         8
  56.2000         8
  56.2500        15
  56.3000         8
  56.3500         6
  56.4000         9
  56.4500        13
  56.5000         8
  56.5500        11
  56.6000        13
  56.6500         9
  56.7000        11
  56.7500         6
  56.8000         5
  56.8500         6
  56.9000         8
  56.9500        13
  57.0000         8
  57.0500        10
  57.1000        11
  57.1500         9
  57.2000         8
  57.2500        11
  57.3000        11
  57.3500         9
  57.4000         9
  57.4500         6
  57.5000         7
  57.5500         8
  57.6000         8
  57.6500         8
  57.7000        10
  57.7500         9
  57.8000         7
  57.8500         4
  57.9000         8
  57.9500        10
  58.0000         9
  58.0500         5
  58.1000         8
  58.1500        11
  58.2000        10
  58.2500         8
  58.3000        12
  58.3500        10
  58.4000         9
  58.4500        10
  58.5000        13
  58.5500         3
  58.6000         6
  58.6500         7
  58.7000         6
  58.7500        10
  58.8000        10
  58.8500         3
  58.9000        15
  58.9500        14
  59.0000         7
  59.0500        12
  59.1000         8
  59.1500         8
  59.2000         8
  59.2500         9
  59.3000        10
  59.3500         6
  59.4000         6
  59.4500         7
  59.5000         3
  59.5500         3
  59.6000         9
  59.6500         9
  59.7000        14
  59.7500         3
  59.8000         7
  59.8500        11
  59.9000        10
  59.9500         6
  60.0000        12
  60.0500         7
  60.1000        12
  60.1500         3
  60.2000         6
  60.2500         6
  60.3000        10
  60.3500         8
  60.4000         7
  60.4500         8
  60.5000        10
  60.5500        15
  60.6000         6
  60.6500        10
  60.7000         7
  60.7500         9
  60.8000        12
  60.8500         9
  60.9000         8
  60.9500        10
  61.0000         8
  61.0500         5
  61.1000        13
  61.1500         9
  61.2000         8
  61.2500        10
  61.3000        11
  61.3500        12
  61.4000         7
  61.4500         8
  61.5000         6
  61.5500         7
  61.6000         6
  61.6500         8
  61.7000         7
  61.7500         8
  61.8000         9
  61.8500        11
  61.9000        10
  61.9500         8
  62.0000         5
  62.0500         7
  62.1000        11
  62.1500         6
  62.2000         6
  62.2500        13
  62.3000        10
  62.3500        10
  62.4000         9
  62.4500         8
  62.5000        13
  62.5500         6
  62.6000        12
  62.6500         9
  62.7000        15
  62.7500        11
  62.8000        11
  62.8500         9
  62.9000         8
  62.9500         6
  63.0000         3
  63.0500         7
  63.1000         4
  63.1500         5
  63.2000        12
  63.2500         9
  63.3000         9
  63.3500         7
  63.4000         9
  63.4500        11
  63.5000         8
  63.5500        14
  63.6000        12
  63.6500         9
  63.7000        15
  63.7500         9
  63.8000        12
  63.8500         8
  63.9000        11
  63.9500        11
  64.0000        10
  64.0500        12
  64.1000        17
  64.1500         4
  64.2000        10
  64.2500        12
  64.3000        16
  64.3500        15
  64.4000         9
  64.4500        12
  64.5000        11
  64.5500         8
  64.6000        14
  64.6500         6
  64.7000        10
  64.7500        11
  64.8000        11
  64.8500        10
  64.9000         8
  64.9500         8
  65.0000        12
  65.0500         7
  65.1000         9
  65.1500         8
  65.2000        16
  65.2500         7
  65.3000        11
  65.3500         9
  65.4000         9
  65.4500        13
  65.5000        11
  65.5500        10
  65.6000        13
  65.6500         4
  65.7000         9
  65.7500        11
  65.8000        15
  65.8500         5
  65.9000         8
  65.9500         3
  66.0000         8
  66.0500        14
  66.1000        10
  66.1500         8
  66.2000        12
  66.2500         4
  66.3000        10
  66.3500         4
  66.4000         9
  66.4500        13
  66.5000        13
  66.5500        11
  66.6000        14
  66.6500        10
  66.7000         7
  66.7500         7
  66.8000        12
  66.8500         7
  66.9000         7
  66.9500         8
  67.0000         8
  67.0500         7
  67.1000         6
  67.1500         7
  67.2000         9
  67.2500        10
  67.3000        12
  67.3500        12
  67.4000        10
  67.4500         7
  67.5000         0
  67.5500         9
  67.6000         8
  67.6500        13
  67.7000         7
  67.7500         7
  67.8000         4
  67.8500         7
  67.9000         6
  67.9500        10
  68.0000        12
  68.0500        10
  68.1000         6
  68.1500         7
  68.2000         4
  68.2500         9
  68.3000        10
  68.3500        11
  68.4000        12
  68.4500         7
  68.5000         8
  68.5500         8
  68.6000        10
  68.6500         9
  68.7000         5
  68.7500         4
  68.8000         6
  68.8500         3
  68.9000        13
  68.9500         9
  69.0000         6
  69.0500         7
  69.1000         8
  69.1500         6
  69.2000         6
  69.2500         5
  69.3000         4
  69.3500         8
  69.4000        13
  69.4500        13
  69.5000        10
  69.5500         6
  69.6000         7
  69.6500         9
  69.7000         9
  69.7500        12
  69.8000        15
  69.8500        19
  69.9000        12
  69.9500        15
  70.0000        13
  70.0500         8
  70.1000         8
  70.1500         8
  70.2000        12
  70.2500        15
  70.3000        10
  70.3500         4
  70.4000        10
  70.4500        15
  70.5000        12
  70.5500         8
  70.6000         8
  70.6500         7
  70.7000         7
  70.7500        10
  70.8000         4
  70.8500         5
  70.9000         6
  70.9500        12
  71.0000         7
  71.0500         8
  71.1000         9
  71.1500        10
  71.2000        11
  71.2500        10
  71.3000        12
  71.3500        10
  71.4000        12
  71.4500         9
  71.5000        16
  71.5500         9
  71.6000         6
  71.6500        11
  71.7000        11
  71.7500        11
  71.8000        14
  71.8500        11
  71.9000        11
  71.9500         4
  72.0000         8
  72.0500        11
  72.1000         6
  72.1500        16
  72.2000         7
  72.2500         4
  72.3000         8
  72.3500         8
  72.4000        11
  72.4500         6
  72.5000         8
  72.5500         8
  72.6000         7
  72.6500         7
  72.7000         8
  72.7500         9
  72.8000         9
  72.8500        11
  72.9000         9
  72.9500        10
  73.0000        12
  73.0500        10
  73.1000         6
  73.1500        10
  73.2000         8
  73.2500         8
  73.3000        13
  73.3500        11
  73.4000         9
  73.4500        10
  73.5000         6
  73.5500         8
  73.6000        13
  73.6500        11
  73.7000         4
  73.7500        14
  73.8000         9
  73.8500        10
  73.9000         9
  73.9500        14
  74.0000         7
  74.0500        10
  74.1000         9
  74.1500        13
  74.2000         6
  74.2500         5
  74.3000         9
  74.3500         7
  74.4000         7
  74.4500        13
  74.5000        13
  74.5500        13
  74.6000        21
  74.6500        12
  74.7000        13
  74.7500        10
  74.8000         5
  74.8500        13
  74.9000        15
  74.9500         8
  75.0000        11
  75.0500        10
  75.1000         8
  75.1500        10
  75.2000        10
  75.2500        12
  75.3000         8
  75.3500        12
  75.4000        14
  75.4500        17
  75.5000        16
  75.5500        15
  75.6000        15
  75.6500        18
  75.7000        16
  75.7500        13
  75.8000        15
  75.8500        22
  75.9000        18
  75.9500        23
  76.0000        28
  76.0500        31
  76.1000        33
  76.1500        56
  76.2000        62
  76.2500       106
  76.3000       109
  76.3500       151
  76.4000       179
  76.4500       197
  76.5000       187
  76.5500       170
  76.6000       149
  76.6500       128
  76.7000       130
  76.7500        95
  76.8000        68
  76.8500        65
  76.9000        33
  76.9500        34
  77.0000        31
  77.0500        18
  77.1000        26
  77.1500        15
  77.2000        27
  77.2500        13
  77.3000        12
  77.3500        15
  77.4000        12
  77.4500        13
  77.5000        14
  77.5500         9
  77.6000        12
  77.6500         9
  77.7000        12
  77.7500        12
  77.8000        11
  77.8500        12
  77.9000        14
  77.9500        19
  78.0000        10
  78.0500         7
  78.1000        16
  78.1500        11
  78.2000         7
  78.2500        12
  78.3000         8
  78.3500        11
  78.4000        11
  78.4500         6
  78.5000        14
  78.5500         9
  78.6000         2
  78.6500         6
  78.7000        10
  78.7500         9
  78.8000        19
  78.8500         5
  78.9000        13
  78.9500        10
  79.0000         6
  79.0500         9
  79.1000        10
  79.1500        10
  79.2000         8
  79.2500         8
  79.3000         3
  79.3500         6
  79.4000        11
  79.4500         5
  79.5000         9
  79.5500        13
  79.6000        10
  79.6500         9
  79.7000        10
  79.7500        15
  79.8000         8
  79.8500         7
  79.9000         9
  79.9500         4
  80.0000        12
  80.0500         6
  80.1000         4
  80.1500        10
  80.2000        11
  80.2500         5
  80.3000        18
  80.3500         6
  80.4000        11
  80.4500         7
  80.5000        10
  80.5500        11
  80.6000         6
  80.6500         5
  80.7000        15
  80.7500         7
  80.8000        12
  80.8500        18
  80.9000        11
  80.9500         7
  81.0000         7
  81.0500         3
  81.1000        11
  81.1500        10
  81.2000        15
  81.2500         9
  81.3000         7
  81.3500        15
  81.4000         9
  81.4500         8
  81.5000         9
  81.5500        10
  81.6000         8
  81.6500        12
  81.7000         6
  81.7500        12
  81.8000         8
  81.8500        18
  81.9000         9
  81.9500        13
  82.0000         6
  82.0500         8
  82.1000         5
  82.1500         7
  82.2000        10
  82.2500        20
  82.3000         9
  82.3500         6
  82.4000         8
  82.4500         5
  82.5000         8
  82.5500         3
  82.6000        11
  82.6500         8
  82.7000         5
  82.7500        11
  82.8000        10
  82.8500        17
  82.9000        10
  82.9500        10
  83.0000        10
  83.0500         8
  83.1000        11
  83.1500        12
  83.2000         9
  83.2500        12
  83.3000        11
  83.3500        13
  83.4000         7
  83.4500         2
  83.5000         8
  83.5500        15
  83.6000         9
  83.6500         8
  83.7000         5
  83.7500         8
  83.8000         5
  83.8500         9
  83.9000         8
  83.9500        11
  84.0000        14
  84.0500         7
  84.1000        14
  84.1500         2
  84.2000        12
  84.2500        11
  84.3000        15
  84.3500         8
  84.4000         9
  84.4500         4
  84.5000        12
  84.5500        11
  84.6000         8
  84.6500        12
  84.7000        11
  84.7500         9
  84.8000         6
  84.8500        14
  84.9000        10
  84.9500        10
  85.0000         9
  85.0500        13
  85.1000        10
  85.1500        10
  85.2000        10
  85.2500        14
  85.3000         2
  85.3500         6
  85.4000         9
  85.4500         9
  85.5000         8
  85.5500         6
  85.6000         8
  85.6500         6
  85.7000         6
  85.7500         3
  85.8000        12
  85.8500         7
  85.9000        10
  85.9500        11
  86.0000        10
  86.0500         7
  86.1000         7
  86.1500        13
  86.2000        15
  86.2500        13
  86.3000         8
  86.3500         8
  86.4000        14
  86.4500        10
  86.5000         8
  86.5500         9
  86.6000        12
  86.6500         8
  86.7000        11
  86.7500         8
  86.8000        13
  86.8500         9
  86.9000        13
  86.9500         8
  87.0000         5
  87.0500        12
  87.1000         7
  87.1500         7
  87.2000        10
  87.2500         9
  87.3000         7
  87.3500        12
  87.4000         7
  87.4500        15
  87.5000         8
  87.5500        10
  87.6000         6
  87.6500         8
  87.7000         5
  87.7500         8
  87.8000        11
  87.8500         9
  87.9000         7
  87.9500         8
  88.0000        12
  88.0500        12
  88.1000        10
  88.1500        21
  88.2000         8
  88.2500         8
  88.3000        10
  88.3500        11
  88.4000        12
  88.4500        12
  88.5000        10
  88.5500        12
  88.6000        10
  88.6500         7
  88.7000        12
  88.7500         8
  88.8000         9
  88.8500         5
  88.9000         8
  88.9500         9
  89.0000         6
  89.0500         9
  89.1000         7
  89.1500        12
  89.2000        13
  89.2500        11
  89.3000        11
  89.3500         6
  89.4000         6
  89.4500         9
  89.5000         6
  89.5500         7
  89.6000         5
  89.6500        10
  89.7000         7
  89.7500        10
  89.8000        11
  89.8500        19
  89.9000         4
  89.9500         8
  90.0000         4
  90.0500         6
  90.1000        11
  90.1500        10
  90.2000         8
  90.2500         6
  90.3000        12
  90.3500         9
  90.4000        12
  90.4500         9
  90.5000         9
  90.5500        14
  90.6000         8
  90.6500        11
  90.7000         7
  90.7500        22
  90.8000        15
  90.8500         5
  90.9000        13
  90.9500        10
  91.0000         4
  91.0500        11
  91.1000        12
  91.1500         7
  91.2000        12
  91.2500         9
  91.3000        19
  91.3500         9
  91.4000        12
  91.4500         9
  91.5000        16
  91.5500        12
  91.6000         7
  91.6500        13
  91.7000        12
  91.7500        12
  91.8000        12
  91.8500        12
  91.9000        11
  91.9500        17
  92.0000        15
  92.0500        11
  92.1000        13
  92.1500        13
  92.2000        20
  92.2500        17
  92.3000        19
  92.3500        22
  92.4000        23
  92.4500        44
  92.5000        35
  92.5500        35
  92.6000        59
  92.6500        64
  92.7000        59
  92.7500        61
  92.8000        69
  92.8500       105
  92.9000       135
  92.9500       169
  93.0000       173
  93.0500       162
  93.1000       137
  93.1500       120
  93.2000       133
  93.2500       107
  93.3000       109
  93.3500        91
  93.4000        76
  93.4500        64
  93.5000        60
  93.5500        40
  93.6000        37
  93.6500        25
  93.7000        20
  93.7500        14
  93.8000        20
  93.8500        16
  93.9000        18
  93.9500        20
  94.0000        18
  94.0500        18
  94.1000        15
  94.1500        16
  94.2000        15
  94.2500        12
  94.3000        15
  94.3500        15
  94.4000        15
  94.4500        12
  94.5000         7
  94.5500        11
  94.6000        18
  94.6500        13
  94.7000         9
  94.7500        10
  94.8000        19
  94.8500         8
  94.9000         8
  94.9500        10
  95.0000         7
  95.0500        17
  95.1000        14
  95.1500         6
  95.2000        10
  95.2500        11
  95.3000         5
  95.3500         7
  95.4000        11
  95.4500         9
  95.5000         8
  95.5500         9
  95.6000        10
  95.6500        11
  95.7000         7
  95.7500        12
  95.8000         9
  95.8500         9
  95.9000         9
  95.9500        10
  96.0000        13
  96.0500         6
  96.1000        20
  96.1500        10
  96.2000         8
  96.2500         9
  96.3000         5
  96.3500         8
  96.4000        11
  96.4500         6
  96.5000         9
  96.5500        12
  96.6000         8
  96.6500        16
  96.7000        12
  96.7500         9
  96.8000        10
  96.8500        15
  96.9000         9
  96.9500         1
  97.0000        12
  97.0500        10
  97.1000         9
  97.1500         8
  97.2000        20
  97.2500         7
  97.3000        14
  97.3500        14
  97.4000         7
  97.4500        13
  97.5000        14
  97.5500         9
  97.6000         9
  97.6500        15
  97.7000         9
  97.7500         9
  97.8000        10
  97.8500        10
  97.9000        11
  97.9500        12
  98.0000        15
  98.0500        20
  98.1000        19
  98.1500        25
  98.2000        27
  98.2500        17
  98.3000        33
  98.3500        55
  98.4000        46
  98.4500        65
  98.5000        54
  98.5500        56
  98.6000        49
  98.6500        43
  98.7000        37
  98.7500        35
  98.8000        44
  98.8500        28
  98.9000        39
  98.9500        30
  99.0000        15
  99.0500        18
  99.1000        20
  99.1500        11
  99.2000        15
  99.2500        24
  99.3000        17
  99.3500        11
  99.4000        12
  99.4500         9
  99.5000         5
  99.5500        13
  99.6000        17
  99.6500        17
  99.7000         8
  99.7500        14
  99.8000         7
  99.8500         8
  99.9000        11
  99.9500         9
 100.0000        12
 100.0500        13
 100.1000         9
 100.1500        11
 100.2000        11
 100.2500         8
 100.3000        10
 100.3500        10
 100.4000         7
 100.4500        10
 100.5000        14
 100.5500         9
 100.6000        12
 100.6500        12
 100.7000        11
 100.7500        15
 100.8000        13
 100.8500         4
 100.9000        11
 100.9500         7
 101.0000         5
 101.0500        14
 101.1000         5
 101.1500        11
 101.2000        10
 101.2500        13
 101.3000        13
 101.3500        13
 101.4000         8
 101.4500        11
 101.5000         8
 101.5500        15
 101.6000        11
 101.6500        12
 101.7000         9
 101.7500         9
 101.8000        14
 101.8500         9
 101.9000         8
 101.9500         4
 102.0000        12
 102.0500        14
 102.1000         6
 102.1500         8
 102.2000        14
 102.2500        11
 102.3000        15
 102.3500        14
 102.4000         9
 102.4500         5
 102.5000         8
 102.5500         7
 102.6000        10
 102.6500        10
 102.7000        16
 102.7500        10
 102.8000        10
 102.8500        10
 102.9000         6
 102.9500        13
 103.0000         9
 103.0500         2
 103.1000         6
 103.1500         4
 103.2000        10
 103.2500        11
 103.3000         8
 103.3500        12
 103.4000        10
 103.4500        11
 103.5000         5
 103.5500         9
 103.6000         9
 103.6500         5
 103.7000        14
 103.7500         7
 103.8000         9
 103.8500         6
 103.9000         5
 103.9500        11
 104.0000         8
 104.0500         5
 104.1000         9
 104.1500         4
 104.2000        13
 104.2500        14
 104.3000        11
 104.3500         6
 104.4000        12
 104.4500        14
 104.5000         6
 104.5500        14
 104.6000        11
 104.6500         7
 104.7000        12
 104.7500        11
 104.8000         5
 104.8500        11
 104.9000         4
 104.9500         9
 105.0000        10
 105.0500         5
 105.1000        10
 105.1500        10
 105.2000         7
 105.2500         9
 105.3000         8
 105.3500        10
 105.4000         8
 105.4500        10
 105.5000        10
 105.5500        16
 105.6000         6
 105.6500         9
 105.7000         7
 105.7500        10
 105.8000         6
 105.8500         7
 105.9000        11
 105.9500        11
 106.0000         9
 106.0500        11
 106.1000        13
 106.1500         3
 106.2000        12
 106.2500         9
 106.3000        12
 106.3500         9
 106.4000         9
 106.4500        14
 106.5000        11
 106.5500        11
 106.6000         5
 106.6500         9
 106.7000         9
 106.7500         7
 106.8000         9
 106.8500         7
 106.9000         9
 106.9500        11
 107.0000        10
 107.0500        12
 107.1000        14
 107.1500         5
 107.2000         9
 107.2500         4
 107.3000         7
 107.3500        12
 107.4000         9
 107.4500        12
 107.5000        13
 107.5500        11
 107.6000         7
 107.6500         8
 107.7000        10
 107.7500        16
 107.8000         8
 107.8500        11
 107.9000        10
 107.9500         9
 108.0000         2
 108.0500        15
 108.1000        11
 108.1500         9
 108.2000         7
 108.2500         9
 108.3000         8
 108.3500         7
 108.4000        14
 108.4500        11
 108.5000         7
 108.5500        13
 108.6000        11
 108.6500         7
 108.7000         6
 108.7500         6
 108.8000        11
 108.8500         9
 108.9000         9
 108.9500         4
 109.0000         6
 109.0500         8
 109.1000        12
 109.1500         5
 109.2000         6
 109.2500         7
 109.3000         6
 109.3500        11
 109.4000         8
 109.4500         6
 109.5000         6
 109.5500         9
 109.6000        10
 109.6500        14
 109.7000         8
 109.7500        11
 109.8000         7
 109.8500         9
 109.9000         7
 109.9500         7
 110.0000        14
